realtime,framenum,rendertime(ms),GPUUtil(%)
0.185888,6,16.686500,99
0.206914,6,0.000500,99
0.221445,7,14.225400,99
0.239182,8,16.881700,99
0.256005,9,15.951300,99
0.274323,10,17.837000,99
0.291347,11,16.468700,99
0.309435,12,17.587900,99
0.325864,13,15.934700,99
0.343835,14,17.448300,99
0.360393,15,15.645100,99
0.378109,16,16.693400,99
0.394861,17,16.139100,99
0.412394,18,16.870100,99
0.429185,19,16.290700,99
0.447425,20,17.730200,99
0.465080,21,17.108300,99
0.481778,22,16.157600,99
0.499300,23,16.629300,99
0.515908,24,15.688500,99
0.534472,25,17.926200,99
0.551590,26,16.551300,99
0.570220,27,18.068700,99
0.587106,28,16.316000,99
0.604738,29,17.012800,99
0.621568,30,16.264000,99
0.639143,31,16.699400,99
0.655722,32,15.612600,99
0.673991,33,17.759700,99
0.690883,34,16.279900,99
0.708699,35,17.324100,99
0.725710,36,16.506600,99
0.743531,37,17.315400,99
0.760633,38,16.091900,99
0.778389,39,16.942400,99
0.796740,40,17.479100,99
0.813302,41,16.013200,99
0.831649,42,17.854900,99
0.848060,43,15.914200,99
0.865895,44,17.333700,99
0.883645,45,17.196000,99
0.901216,46,16.800500,99
0.917760,47,15.755500,99
0.935601,48,17.380800,99
0.952393,49,16.293100,99
0.970734,50,17.717400,99
0.987493,51,16.258100,99
1.005816,52,17.820000,99
1.022395,53,16.044000,99
1.039767,54,16.383200,99
1.056607,55,15.867400,99
1.074114,56,16.999600,99
1.091114,57,16.486100,99
1.109223,58,17.482800,99
1.125563,59,15.850100,99
1.143404,60,17.350300,99
1.160528,61,16.125600,99
1.178351,62,16.969100,99
1.195251,63,16.225100,99
1.212779,64,16.894500,99
1.230491,65,17.158000,99
1.246743,66,15.697900,99
1.264186,67,16.785900,99
1.280785,68,15.783000,99
1.298605,69,16.909800,99
1.315022,70,15.520400,99
1.333079,71,17.418000,99
1.349510,72,15.678400,99
1.367654,73,17.521600,99
1.384824,74,16.675600,99
1.402220,75,16.684100,99
1.418601,76,15.508700,99
1.437102,77,17.532300,99
1.453594,78,15.965400,99
1.470798,79,16.589400,99
1.487050,80,15.737900,99
1.504628,81,16.983200,99
1.521274,82,16.151100,99
1.539195,83,17.114800,99
1.555555,84,15.467500,99
1.573130,85,16.960000,99
1.589461,86,15.834700,99
1.607506,87,17.413000,99
1.624624,88,16.433700,99
1.642571,89,17.319700,99
1.659904,90,16.134400,99
1.677410,91,16.455900,99
1.694372,92,16.358600,99
1.711432,93,16.397500,99
1.728999,94,16.940400,99
1.746093,95,16.530500,99
1.764110,96,17.384800,99
1.781042,97,16.390600,99
1.798741,98,14.580500,99
1.815262,99,15.673900,99
1.832496,100,16.604600,99
1.848897,101,15.848700,99
1.866619,102,17.217500,99
1.882646,103,15.477300,99
1.899825,104,16.201400,99
1.915852,105,15.101100,99
1.933004,106,16.526500,99
1.949606,107,16.110400,99
1.967670,108,17.437000,99
1.984136,109,15.948900,99
2.002054,110,17.153200,99
2.018059,111,15.164400,99
2.034927,112,15.919000,99
2.051150,113,15.676900,99
2.068641,114,16.992900,99
2.084847,115,15.715800,99
2.101738,116,16.386400,99
2.118086,117,15.469900,99
2.135025,118,16.205200,99
2.150828,119,15.306000,99
2.168635,120,17.295400,99
2.184990,121,15.849400,99
2.202854,122,17.236300,99
2.218918,123,15.220200,99
2.237161,124,17.309400,99
2.253152,125,15.442400,99
2.271955,126,18.180600,99
2.288104,127,15.288500,99
2.306091,128,17.348900,99
2.322749,129,16.052400,99
2.340499,130,16.804400,99
2.357267,131,15.838900,99
2.375304,132,17.410100,99
2.392282,133,16.276900,99
2.411189,134,18.281300,99
2.428632,135,16.895700,99
2.445613,136,16.163300,99
2.463327,137,17.213500,99
2.480005,138,15.846900,99
2.497822,139,16.851900,99
2.514509,140,15.903400,99
2.532383,141,17.243700,99
2.548907,142,15.978900,99
2.566723,143,17.191800,99
2.583382,144,16.106700,99
2.601282,145,16.366000,99
2.617983,146,15.773100,99
2.635874,147,17.012200,99
2.652355,148,15.941700,99
2.669836,149,16.971200,99
2.686974,150,16.628300,99
2.705036,151,17.573100,99
2.722095,152,16.490900,99
2.740688,153,17.713700,99
2.758095,154,16.476200,99
2.776917,155,17.853700,99
2.794132,156,16.738700,99
2.811780,157,17.059900,99
2.829948,158,17.658600,99
2.847411,159,16.934500,99
2.865935,160,17.989100,99
2.883597,161,17.111000,99
2.902374,162,17.893400,99
2.919538,163,16.249200,99
2.938390,164,17.999900,99
2.955550,165,16.211500,99
2.975560,166,19.399700,99
2.992501,167,16.350200,99
3.010715,168,17.700900,99
3.028114,169,16.901400,99
3.046019,170,17.343200,99
3.063983,171,17.341300,99
3.081635,172,17.098900,99
3.099580,173,17.027900,99
3.116761,174,16.106000,99
3.135216,175,17.823400,99
3.152107,176,16.337900,99
3.170793,177,18.051800,99
3.187794,178,16.440900,99
3.205582,179,17.167000,99
3.221986,180,15.785000,99
3.240071,181,17.071800,99
3.257120,182,16.059300,99
3.274581,183,16.959800,99
3.291537,184,16.277100,99
3.309334,185,17.236700,99
3.325712,186,15.768800,99
3.342824,187,16.617700,99
3.358973,188,15.223900,99
3.376685,189,16.709500,99
3.394981,190,17.689200,99
3.412099,191,16.637100,99
3.428920,192,16.307300,99
3.446092,193,16.685000,99
3.463548,194,16.813200,99
3.480424,195,16.036300,99
3.498062,196,16.700000,99
3.515085,197,16.111200,99
3.532907,198,17.187600,99
3.549763,199,16.213400,99
3.568293,200,17.902600,99
3.585124,201,16.271400,99
3.603295,202,17.542300,99
3.620059,203,15.918000,99
3.637504,204,16.534200,99
3.653914,205,15.703100,99
3.671744,206,17.252700,99
3.688247,207,15.706300,99
3.705767,208,16.899000,99
3.722363,209,15.962700,99
3.740509,210,17.279000,99
3.757248,211,15.774300,99
3.774829,212,16.910600,99
3.791840,213,16.298300,99
3.810154,214,17.684000,99
3.827428,215,16.648900,99
3.845519,216,17.520200,99
3.863716,217,17.550100,99
3.880671,218,16.059300,99
3.898385,219,16.813200,99
3.915601,220,16.298100,99
3.934598,221,18.347200,99
3.952056,222,16.892800,99
3.970722,223,18.038800,99
3.987350,224,16.067700,99
4.005117,225,17.149000,99
4.021891,226,16.222500,99
4.039568,227,16.866400,99
4.057496,228,16.933400,99
4.075363,229,17.011600,99
4.092365,230,16.251600,99
4.110251,231,17.239100,99
4.127320,232,16.570200,99
4.145010,233,17.194100,99
4.162716,234,17.209100,99
4.179988,235,16.466300,99
4.198017,236,14.589500,99
4.214705,237,15.776100,99
4.232635,238,17.296500,99
4.249584,239,16.398200,99
4.268403,240,18.183700,99
4.285306,241,16.395100,99
4.303579,242,17.639200,99
4.320438,243,16.298600,99
4.338388,244,17.169100,99
4.355212,245,15.803800,99
4.373153,246,17.324600,99
4.390289,247,16.517300,99
4.408553,248,17.732000,99
4.425430,249,16.235400,99
4.443724,250,17.657500,99
4.461284,251,16.937800,99
4.478765,252,16.592600,99
4.497994,253,18.258400,99
4.514942,254,16.058800,99
4.533180,255,17.620900,99
4.550239,256,16.555000,99
4.569991,257,19.245000,99
4.587046,258,16.553500,99
4.606291,259,18.750500,99
4.623232,260,16.412700,99
4.641343,261,17.467400,99
4.658207,262,15.788400,99
4.676951,263,17.729600,99
4.694639,264,17.028500,99
4.712053,265,16.860900,99
4.730121,266,17.451800,99
4.747317,267,16.702200,99
4.765319,268,17.502800,99
4.782076,269,16.206600,99
4.800086,270,16.877300,99
4.816874,271,15.853500,99
4.835921,272,18.396500,99
4.852880,273,16.404600,99
4.872082,274,18.586100,99
4.889156,275,16.518900,99
4.907155,276,17.361600,99
4.924287,277,16.502700,99
4.943530,278,18.613700,99
4.961138,279,16.997200,99
4.978888,280,16.917800,99
4.997710,281,14.591300,99
5.014811,282,16.243500,99
5.033128,283,17.680900,99
5.050788,284,17.168900,99
5.070622,285,19.320300,99
5.087854,286,16.661700,99
5.106768,287,18.270300,99
5.124129,288,16.729700,99
5.142850,289,18.073500,99
5.160977,290,17.250300,99
5.179031,291,17.182300,99
5.197306,292,14.250500,99
5.214955,293,16.907600,99
5.233188,294,17.595300,99
5.251365,295,17.541300,99
5.270954,296,18.958400,99
5.288715,297,17.213800,99
5.309164,298,19.832200,99
5.328638,299,18.984400,99
5.346588,300,17.438800,99
5.364830,301,17.746100,99
5.382909,302,17.580200,99
5.400599,303,16.906300,99
5.418065,304,16.684300,99
5.435544,305,16.608500,99
5.452990,306,16.932700,99
5.470838,307,17.359300,99
5.488500,308,17.168000,99
5.506048,309,17.061800,99
5.523481,310,16.919800,99
5.540811,311,16.843700,99
5.558256,312,16.496600,99
5.576583,313,17.344000,99
5.593715,314,16.651000,99
5.610922,315,16.709600,99
5.627838,316,16.424500,99
5.645185,317,16.859700,99
5.662335,318,16.359600,99
5.679161,319,16.046000,99
5.696086,320,16.097100,99
5.712944,321,16.378700,99
5.729823,322,16.389700,99
5.746673,323,16.297700,99
5.763541,324,16.372800,99
5.780282,325,16.237500,99
5.796967,326,13.955200,99
5.814164,327,16.454900,99
5.830789,328,15.946000,99
5.847310,329,16.021200,99
5.863754,330,15.955100,99
5.880239,331,15.979000,99
5.896768,332,15.743500,99
5.913222,333,15.826900,99
5.929688,334,15.902200,99
5.946447,335,16.272500,99
5.962926,336,15.997500,99
5.979122,337,15.691100,99
5.995759,338,12.905600,99
6.012345,339,16.158400,99
6.029497,340,16.643600,99
6.046145,341,16.141600,99
6.062924,342,16.283700,99
6.079291,343,15.879500,99
6.095992,344,15.906500,99
6.112438,345,15.962900,99
6.129379,346,16.437300,99
6.146154,347,16.279900,99
6.162570,348,15.931800,99
6.178921,349,15.866100,99
6.195390,350,12.979700,99
6.211435,351,15.660400,99
6.228358,352,16.421200,99
6.244836,353,15.986400,99
6.260918,354,15.592400,99
6.277289,355,15.580600,99
6.293234,356,15.008200,99
6.309592,357,15.857800,99
6.325217,358,15.125700,99
6.341670,359,15.953700,99
6.357869,360,15.254400,99
6.374223,361,15.479900,99
6.389984,362,15.274200,99
6.406093,363,15.628500,99
6.421583,364,14.993600,99
6.437874,365,15.800000,99
6.453795,366,15.081200,99
6.469921,367,15.636300,99
6.485730,368,15.161300,99
6.501631,369,15.397000,99
6.517282,370,15.134000,99
6.533281,371,15.007500,99
6.548875,372,15.089500,99
6.564345,373,14.986100,99
6.579859,374,15.016800,99
6.595192,375,13.006200,99
6.610493,376,14.940300,99
6.626037,377,14.854500,99
6.641849,378,15.350300,99
6.656734,379,13.922300,99
6.672005,380,14.568800,99
6.687371,381,14.865800,99
6.702655,382,14.787400,99
6.717933,383,14.788100,99
6.733286,384,14.334900,99
6.748489,385,14.715700,99
6.763661,386,14.681700,99
6.778900,387,14.747200,99
6.794733,388,12.499200,99
6.810175,389,15.068400,99
6.825216,390,14.534100,99
6.840701,391,14.991000,99
6.855743,392,14.168300,99
6.870896,393,14.681200,99
6.886231,394,14.566500,99
6.901814,395,15.086400,99
6.917040,396,14.716200,99
6.932141,397,14.378600,99
6.947349,398,14.665000,99
6.962392,399,14.553800,99
6.977573,400,14.288900,99
6.992649,401,10.542300,99
7.008062,402,15.041900,99
7.022938,403,14.374300,99
7.038072,404,14.636000,99
7.053266,405,14.369200,99
7.068197,406,14.426000,99
7.083561,407,14.852600,99
7.098576,408,14.505500,99
7.113196,409,13.811900,99
7.128063,410,14.372400,99
7.143214,411,14.654800,99
7.157879,412,14.187900,99
7.173235,413,14.383300,99
7.188097,414,14.369200,99
7.202813,415,14.214600,99
7.218005,416,14.701200,99
7.233305,417,14.263100,99
7.247830,418,14.035100,99
7.262766,419,14.447600,99
7.277834,420,14.564200,99
7.292811,421,14.253700,99
7.308212,422,14.815500,99
7.322883,423,14.159700,99
7.337610,424,14.229800,99
7.351988,425,13.395900,99
7.367080,426,14.597800,99
7.381195,427,13.602300,99
7.395893,428,13.439400,99
7.410560,429,14.234300,99
7.425066,430,14.009700,99
7.439833,431,14.272900,99
7.454519,432,13.901000,99
7.469316,433,14.368000,99
7.483935,434,14.120200,99
7.500335,435,15.894600,99
7.515226,436,14.102800,99
7.530063,437,14.391600,99
7.544894,438,14.330800,99
7.559841,439,14.455800,99
7.574635,440,14.001800,99
7.589109,441,14.050900,99
7.603716,442,14.125500,99
7.618600,443,14.377100,99
7.633432,444,13.995200,99
7.647742,445,13.848800,99
7.662325,446,14.078400,99
7.677663,447,14.555800,99
7.691961,448,13.583800,99
7.706588,449,14.163200,99
7.721220,450,14.133500,99
7.735664,451,13.635700,99
7.750092,452,14.007500,99
7.764087,453,13.498500,99
7.778579,454,13.986300,99
7.792648,455,10.788300,99
7.807086,456,13.937200,99
7.821052,457,13.472700,99
7.835555,458,13.722700,99
7.850077,459,14.102100,99
7.864458,460,13.893500,99
7.878697,461,13.752800,99
7.892974,462,13.499900,99
7.907599,463,14.203800,99
7.922117,464,14.012900,99
7.936485,465,13.507200,99
7.950717,466,13.551900,99
7.964768,467,13.567700,99
7.978989,468,13.715800,99
7.993381,469,11.313600,99
8.007785,470,13.975100,99
8.021849,471,13.557400,99
8.036423,472,13.980700,99
8.050313,473,13.176200,99
8.064628,474,13.843800,99
8.078899,475,13.779200,99
8.093190,476,13.502500,99
8.107646,477,13.961300,99
8.121462,478,13.326000,99
8.135439,479,12.949600,99
8.149928,480,13.994300,99
8.164225,481,13.610900,99
8.178547,482,13.825900,99
8.192453,483,10.377300,99
8.207047,484,14.067700,99
8.221113,485,13.570300,99
8.235124,486,13.213900,99
8.249254,487,13.698400,99
8.263406,488,13.663000,99
8.277586,489,13.690900,99
8.292103,490,13.839600,99
8.306610,491,14.031700,99
8.321158,492,14.064300,99
8.335236,493,13.310600,99
8.349335,494,13.687000,99
8.363590,495,13.764400,99
8.377769,496,13.669100,99
8.392061,497,10.371400,99
8.406955,498,14.510300,99
8.421227,499,13.793400,99
8.435659,500,13.490500,99
8.449833,501,13.477600,99
8.464030,502,13.703300,99
8.478531,503,14.002300,99
8.492353,504,13.049200,99
8.507017,505,14.070500,99
8.520956,506,13.446800,99
8.535379,507,13.920100,99
8.550383,508,14.634800,99
8.564464,509,13.579600,99
8.578814,510,13.868000,99
8.593369,511,11.433300,99
8.608270,512,14.473800,99
8.623073,513,14.235000,99
8.637599,514,14.030400,99
8.652433,515,13.863000,99
8.667375,516,14.434100,99
8.681990,517,14.109500,99
8.697116,518,14.332100,99
8.712010,519,14.015500,99
8.727494,520,14.977900,99
8.741925,521,13.939300,99
8.756840,522,14.117700,99
8.771804,523,14.096000,99
8.786752,524,14.458900,99
8.802029,525,14.794800,99
8.816798,526,14.260900,99
8.831936,527,14.271800,99
8.846851,528,14.431700,99
8.862039,529,14.693200,99
8.877233,530,14.699600,99
8.892063,531,13.807900,99
8.907105,532,14.451800,99
8.922207,533,14.609400,99
8.936848,534,14.137000,99
8.951594,535,13.912700,99
8.966147,536,14.060700,99
8.980921,537,14.259200,99
8.995463,538,13.591800,99
9.009916,539,13.975100,99
9.024503,540,14.010800,99
9.039198,541,14.181500,99
9.053706,542,13.694700,99
9.069399,543,15.213900,99
9.083182,544,13.287000,99
9.097918,545,14.228800,99
9.112028,546,13.282000,99
9.126324,547,13.703800,99
9.140705,548,13.884400,99
9.155065,549,13.340400,99
9.169397,550,13.909500,99
9.183724,551,13.816600,99
9.198736,552,14.509300,99
9.213069,553,13.463400,99
9.227688,554,14.145700,99
9.241875,555,13.692000,99
9.256531,556,14.072100,99
9.271160,557,13.871700,99
9.285548,558,13.890800,99
9.300037,559,13.974800,99
9.315432,560,14.479800,99
9.330620,560,14.757400,99
9.346080,562,14.828600,99
9.361419,563,14.850200,99
9.376740,564,14.816900,99
9.391862,565,10.535800,99
9.407024,566,14.738100,99
9.422138,567,14.613500,99
9.437958,568,15.319200,99
9.453463,569,14.620300,99
9.468700,570,14.805000,99
9.484034,571,14.843400,99
9.499320,572,14.801600,99
9.514477,573,14.278600,99
9.530022,574,15.126300,99
9.545691,575,15.175200,99
9.561409,576,15.223200,99
9.576747,577,14.835500,99
9.591946,578,10.695100,99
9.607748,579,15.254800,99
9.623219,580,14.981100,99
9.639036,581,15.324600,99
9.654428,582,14.611200,99
9.669848,583,15.022000,99
9.685334,584,14.710500,99
9.701348,585,15.543500,99
9.717118,586,15.260200,99
9.732889,587,14.907600,99
9.748621,588,15.243700,99
9.764171,589,15.050300,99
9.779487,590,14.809300,99
9.795050,591,13.841300,99
9.810637,592,15.215400,99
9.826276,593,15.143200,99
9.841906,594,15.137600,99
9.857305,595,14.797600,99
9.872736,596,14.533800,99
9.887977,597,14.485800,99
9.903603,598,15.123400,99
9.919202,599,15.108400,99
9.934984,600,15.001600,99
9.950446,601,14.828900,99
9.966157,602,15.212200,99
9.981805,603,15.146100,99
9.997399,604,14.786200,99
10.013192,605,14.928400,99
10.031208,606,17.529700,99
10.046948,607,15.241400,99
10.062689,608,15.253000,99
10.078586,609,15.399500,99
10.094614,610,15.246200,99
10.110362,611,15.300800,99
10.126271,612,15.402900,99
10.142523,613,15.755000,99
10.160326,614,17.306200,99
10.176744,615,15.648800,99
10.192803,616,11.502300,99
10.208769,617,15.583300,99
10.224357,618,15.081900,99
10.240060,619,15.195700,99
10.256065,620,15.503900,99
10.272114,621,15.248100,99
10.288344,622,15.740800,99
10.304146,623,15.180500,99
10.320157,624,15.514000,99
10.336103,625,15.447000,99
10.351792,626,14.829900,99
10.367975,627,15.579500,99
10.384047,628,15.570500,99
10.400378,629,15.831600,99
10.416365,630,15.496800,99
10.432769,631,15.516100,99
10.449412,632,16.144800,99
10.466277,633,16.372700,99
10.483001,634,16.228500,99
10.501509,635,18.023200,99
10.518989,636,16.998000,99
10.536647,637,16.856600,99
10.553996,638,16.325800,99
10.571374,639,16.881300,99
10.588868,640,16.999000,99
10.606490,641,17.126900,99
10.624579,642,17.581600,99
10.642678,643,17.603900,99
10.660394,644,17.214600,99
10.678752,645,17.552000,99
10.696090,646,16.548600,99
10.706711,646,9.807000,99
10.756375,647,46.393700,99
10.783008,649,22.828400,86
10.799890,650,16.380400,86
10.817807,651,17.010100,86
10.834634,652,15.972200,86
10.850820,653,15.614000,86
10.867879,654,16.561300,86
10.884338,655,15.946700,86
10.900889,656,16.057300,86
10.917703,657,16.016100,86
10.935270,658,16.783200,86
10.952573,659,16.347300,86
10.970523,660,17.475200,86
10.987937,661,16.932000,99
11.005158,662,16.729800,99
11.022772,663,17.116400,99
11.040094,664,16.838300,99
11.057541,665,16.397700,99
11.075023,666,16.680900,99
11.092226,667,16.593000,99
11.110178,668,17.444800,99
11.126936,669,16.253300,99
11.144562,670,17.116800,99
11.162406,671,17.339600,99
11.179650,672,16.749100,99
11.197133,673,15.865700,99
11.214543,674,16.366400,99
11.232068,675,17.043800,99
11.249158,676,16.599500,99
11.266253,677,16.609400,99
11.286279,678,19.529800,99
11.304290,679,17.505800,99
11.321967,680,17.105200,99
11.339377,681,16.912500,99
11.357332,682,17.003700,99
11.375368,683,17.274500,99
11.393094,684,16.858900,99
11.411092,685,17.510700,99
11.428794,686,17.202800,99
11.446214,687,16.915800,99
11.464282,688,17.567400,99
11.482440,689,17.662200,99
11.500220,690,17.299300,99
11.517699,691,16.984400,99
11.535275,692,16.703400,99
11.553067,693,17.060600,99
11.570854,694,17.305300,99
11.588772,694,17.420000,99
11.633615,696,44.356800,99
11.651144,697,17.033400,99
11.668494,698,16.862900,99
11.686958,699,17.957100,99
11.704823,700,17.373400,99
11.722629,701,17.295100,99
11.740008,702,16.829900,99
11.757553,703,16.629000,99
11.775886,704,17.547800,86
11.794616,705,13.699000,86
11.813247,706,18.201900,86
11.831733,707,17.991900,86
11.850300,708,18.060500,86
11.868578,709,17.749500,86
11.886670,710,17.572400,86
11.906859,711,19.692100,86
11.924639,712,17.276100,86
11.943237,713,18.106600,86
11.961256,714,17.528300,86
11.980158,715,18.405100,99
11.998227,716,17.286300,99
12.016027,717,16.840500,99
12.033876,718,16.969000,99
12.051813,719,17.307900,99
12.069480,720,17.173100,99
12.087921,721,17.651100,99
12.105531,722,16.925200,99
12.123427,723,17.113100,99
12.141342,724,17.430600,99
12.159498,725,17.661400,99
12.177934,726,17.656200,99
12.195897,727,14.920400,99
12.214064,728,17.355600,99
12.231923,729,17.355500,99
12.249540,730,17.105800,99
12.267379,731,17.245900,99
12.285017,732,17.141100,99
12.302341,733,16.834800,99
12.319755,734,16.917800,99
12.337021,735,16.486000,99
12.354294,736,16.387800,99
12.372286,737,17.515700,99
12.389691,738,16.921700,99
12.407165,739,16.978500,99
12.424859,740,17.202200,99
12.442617,741,17.262800,99
