realtime,framenum,rendertime(ms),GPUUtil(%)
0.157995,10,0.002300,90
0.184943,10,0.000900,90
0.185451,10,0.000200,90
0.185851,10,0.000300,90
0.192277,11,6.126900,90
0.199870,12,7.125300,90
0.208436,13,6.345600,90
0.217104,14,6.936800,90
0.224939,15,7.297700,90
0.233488,16,6.819000,90
0.241649,17,6.481600,90
0.250590,18,7.879000,90
0.258316,19,7.162000,90
0.266711,20,6.530700,90
0.275056,21,6.366400,90
0.284068,22,7.366700,90
0.291700,23,7.039600,90
0.300488,24,7.217900,90
0.308280,25,6.928700,90
0.317589,26,7.677300,90
0.325175,27,7.163100,90
0.333258,28,6.325100,90
0.341655,29,6.215300,90
0.350654,30,8.043000,90
0.358303,31,7.040500,90
0.366579,32,6.597800,90
0.374665,33,6.173200,90
0.384625,34,8.106400,93
0.396568,35,6.993200,93
0.404311,36,7.258700,93
0.412274,37,7.277000,93
0.420264,38,7.483000,93
0.427935,39,6.806200,93
0.435715,40,7.162500,93
0.443389,41,7.237900,93
0.451704,42,7.375600,93
0.459668,43,7.418600,93
0.467836,44,7.140200,93
0.476954,45,7.074100,93
0.484406,46,6.967300,93
0.493228,47,7.018700,93
0.501872,48,6.632700,93
0.509384,49,6.603200,93
0.518234,50,6.928700,93
0.526645,51,6.733900,93
0.535002,52,6.668700,93
0.542434,53,6.964600,93
0.551004,54,5.865900,93
0.559618,55,6.977900,93
0.567590,56,6.881600,93
0.575702,57,6.540000,93
0.585000,58,6.633800,92
0.593631,59,6.867700,92
0.601246,60,6.550900,92
0.609866,61,6.515500,92
0.617370,62,5.597600,92
0.625760,63,5.463000,92
0.633706,64,5.811800,92
0.641371,65,6.015200,92
0.649496,66,5.642000,92
0.658268,67,5.407200,92
0.666762,68,5.823900,92
0.675315,69,5.396800,92
0.683084,70,6.197100,92
0.690907,71,5.512100,92
0.698720,72,4.832800,92
0.707661,73,5.747200,92
0.716436,74,5.520400,92
0.724910,75,5.490200,92
0.732617,76,6.065800,92
0.740980,77,4.971700,92
0.750040,78,6.527500,92
0.758300,79,6.284100,92
0.766149,80,6.005000,92
0.774324,81,4.795000,92
0.782409,82,4.856200,82
0.791583,83,6.374000,82
0.799907,84,6.666700,82
0.808618,85,6.474300,82
0.817364,86,7.202800,82
0.825284,87,6.220500,82
0.833690,88,6.541700,82
0.842631,89,6.973300,82
0.851001,90,7.476000,82
0.859079,91,6.496300,82
0.867409,92,6.228900,82
0.876685,93,7.404700,82
0.885215,94,8.113800,82
0.893773,95,7.931000,82
0.901894,96,7.375700,82
0.910310,97,7.587700,82
0.918863,98,7.712500,82
0.927088,99,6.925500,82
0.935685,100,7.631200,82
0.944520,101,7.722500,82
0.953366,102,8.264400,82
0.961988,103,8.154300,82
0.970511,104,7.427300,82
0.978964,105,7.867700,82
0.987681,106,7.790500,93
0.996517,107,8.286500,93
1.004499,108,7.464100,93
1.012726,109,7.638200,93
1.020493,110,7.334900,93
1.028222,111,6.850700,93
1.035824,112,7.071800,93
1.043395,113,7.072700,93
1.051345,114,7.201400,93
1.059101,115,7.239800,93
1.067282,116,7.097800,93
1.075951,117,6.884700,93
1.084372,118,7.856500,93
1.092645,119,7.714100,93
1.100716,120,7.556000,93
1.109624,121,7.901100,93
1.117388,122,7.155200,93
1.126048,123,6.883500,93
1.134200,124,6.525500,93
1.142802,125,7.125200,93
1.151012,126,7.607900,93
1.159183,127,7.601500,93
1.167275,128,7.078000,93
1.176018,129,6.760600,93
1.184577,130,6.853900,96
1.193229,131,5.535200,96
1.201163,132,5.888400,96
1.209156,133,7.048100,96
1.217534,134,6.717000,96
1.225571,135,7.362000,96
1.234590,136,5.837900,96
1.242502,137,7.402700,96
1.250980,138,7.550500,96
1.258832,139,7.283100,96
1.267073,140,6.419000,96
1.275268,141,6.090400,96
1.284215,142,7.050900,96
1.292146,143,7.247900,96
1.300720,144,6.977500,96
1.309027,145,7.407900,96
1.317929,146,7.012600,96
1.325526,147,7.095700,96
1.333684,148,6.247700,96
1.342385,149,6.917500,96
1.350535,150,7.259600,96
1.359071,151,6.596900,96
1.367690,152,6.595400,96
1.375923,153,6.312800,96
1.384294,154,6.686800,92
1.392471,155,6.355900,92
1.400794,156,6.590100,92
1.409289,157,6.574700,92
1.417489,158,7.587600,92
1.425706,159,6.461900,92
1.433969,160,6.722000,92
1.442556,161,6.785600,92
1.451705,162,6.446000,92
1.459395,163,7.125200,92
1.467332,164,7.073700,92
1.475771,165,6.429700,92
1.484768,166,7.461200,92
1.493237,167,7.310900,92
1.500628,168,6.868600,92
1.508897,169,7.304300,92
1.517524,170,6.683900,92
1.525869,171,6.819200,92
1.536040,172,5.738600,92
1.544011,173,7.355400,92
1.552086,174,7.140700,92
1.559763,175,7.158800,92
1.568410,176,6.866600,92
1.576106,177,7.065600,92
1.584175,178,7.420500,94
1.592553,179,6.519200,94
1.600359,180,6.319700,94
1.608851,181,6.251000,94
1.617690,182,6.918400,94
1.625564,183,6.451100,94
1.633846,184,6.223800,94
1.642205,185,6.574500,94
1.650584,186,6.449000,94
1.658923,187,6.787300,94
1.667944,188,6.694300,94
1.675416,189,6.813000,94
1.684300,190,7.046300,94
1.692452,191,6.172100,94
1.701114,192,6.845100,94
1.709339,193,7.230700,94
1.718013,194,6.716700,94
1.725918,195,7.312800,94
1.734355,196,6.474700,94
1.742882,197,6.908900,94
1.751221,198,7.187300,94
1.759364,199,7.577300,94
1.768497,200,7.625400,94
1.776707,201,7.683900,94
1.785540,202,8.305600,92
1.793656,203,7.586400,92
1.802115,204,8.030300,92
1.810464,205,7.378200,92
1.818824,206,7.872400,92
1.827047,207,7.294400,92
1.835123,208,7.495600,92
1.843739,209,8.190600,92
1.852509,210,7.772900,92
1.860404,211,7.397000,92
1.868011,212,6.646100,92
1.878116,213,8.684800,92
1.886366,214,7.436200,92
1.894218,215,7.105800,92
1.902362,216,7.608100,92
1.911603,217,8.150200,92
1.920493,218,8.381500,92
1.928837,219,7.392200,92
1.937018,220,7.615300,92
1.945263,221,7.780100,92
1.954069,222,8.248300,92
1.962000,223,7.486100,92
1.969610,224,6.629900,92
1.977619,225,7.472700,92
1.985872,226,7.795700,99
1.993760,227,7.300000,99
2.001235,228,6.962700,99
2.009670,229,7.483300,99
2.017908,230,7.698500,99
2.025421,231,6.831500,99
2.033722,232,6.351300,99
2.043078,233,5.911800,99
2.051274,234,7.164600,99
2.059494,235,6.706500,99
2.067570,236,7.066700,99
2.075335,237,7.120900,99
2.083798,238,6.424500,99
2.091971,239,6.099300,99
2.100857,240,6.979000,99
2.109166,241,7.274300,99
2.117586,242,6.697700,99
2.124887,243,6.759500,99
2.133325,244,6.711900,99
2.141458,245,5.966100,99
2.151661,246,7.155900,99
2.159862,247,7.638000,99
2.167572,248,6.671900,99
2.176096,249,6.915600,99
2.184395,250,7.798400,93
2.192487,251,6.291500,93
2.201402,252,7.205300,93
2.210518,253,6.770300,93
2.220258,254,8.013900,93
2.228063,255,6.774500,93
2.236045,256,7.397300,93
2.242972,257,6.500900,93
2.250435,258,6.358900,93
2.258554,259,6.272800,93
2.266728,260,5.976500,93
2.274832,261,6.074100,93
2.283746,262,5.945400,93
2.291719,263,5.908600,93
2.299609,264,6.098900,93
2.307898,265,6.012000,93
2.316624,266,5.230200,93
2.325207,267,6.672200,93
2.333379,268,6.476000,93
2.341499,269,6.076600,93
2.349836,270,5.942300,93
2.358365,271,5.442800,93
2.367102,272,6.668700,93
2.375296,273,6.355600,93
2.384421,274,5.972800,86
2.392178,275,6.224700,86
2.400465,276,6.508400,86
2.408505,277,6.041700,86
2.417479,278,5.322600,86
2.425572,279,6.579400,86
2.433987,280,6.484500,86
2.441936,281,6.415400,86
2.450557,282,6.417800,86
2.458950,283,5.507200,86
2.467199,284,6.987200,86
2.475163,285,5.968400,86
2.483756,286,6.534900,86
2.492009,287,6.279600,86
2.500667,288,6.925300,86
2.508831,289,6.105300,86
2.517201,290,6.881600,86
2.525209,291,6.386300,86
2.533527,292,6.466600,86
2.541941,293,6.481500,86
2.550307,294,5.818000,86
2.558788,295,6.809200,86
2.566963,296,5.864600,86
2.575508,297,6.899600,86
2.584481,298,7.288800,89
2.592069,299,6.965500,89
2.600316,300,6.624900,89
2.608531,301,6.313200,89
2.617330,302,7.254000,89
2.625620,303,6.539300,89
2.633601,304,6.018000,89
2.641784,305,6.669500,89
2.650523,306,6.413800,89
2.658761,307,6.650300,89
2.666901,308,7.081500,89
2.675231,309,6.672500,89
2.683861,310,6.784900,89
2.692172,311,6.589200,89
2.700604,312,5.478900,89
2.709275,313,6.663900,89
2.717749,314,6.634000,89
2.725346,315,6.922100,89
2.733781,316,6.598000,89
2.742282,317,6.598000,89
2.751225,318,7.027600,89
2.759626,319,7.916600,89
2.767444,320,6.790500,89
2.775777,321,6.619400,89
2.786360,322,7.184200,90
2.794161,323,7.225800,90
2.801966,324,7.281000,90
2.810514,325,7.671500,90
2.818991,326,8.006100,90
2.827371,327,7.303800,90
2.835443,328,7.475300,90
2.844607,329,8.724300,90
2.853295,330,8.113100,90
2.861594,331,7.849900,90
2.869515,332,6.948500,90
2.877935,333,7.916300,90
2.886066,334,7.359000,90
2.893997,335,7.376700,90
2.902246,336,7.682300,90
2.910489,337,7.126700,90
2.918600,338,7.519100,90
2.926311,339,6.721700,90
2.934972,340,6.773400,90
2.944137,341,8.609800,90
2.952419,342,7.760100,90
2.960569,343,7.704800,90
2.968777,344,7.230800,90
2.977625,345,8.226500,90
2.986018,346,7.687400,99
2.994019,347,7.471400,99
3.002040,348,7.464100,99
3.009854,349,7.095300,99
3.018290,350,7.947000,99
3.025881,351,6.940800,99
3.033735,352,7.184800,99
3.042115,353,6.827600,99
3.051519,354,7.235900,99
3.059366,355,7.354700,99
3.068942,356,8.366000,99
3.077978,357,8.472400,99
3.086634,358,7.710000,99
3.095160,359,7.954000,99
3.103805,360,8.178900,99
3.112627,361,8.198700,99
3.121322,362,8.233600,99
3.129833,363,7.691100,99
3.138833,365,8.382400,99
3.147902,366,8.149600,99
3.156408,367,7.845500,99
3.164644,368,7.787300,99
3.172850,369,7.571900,99
3.181224,370,7.942400,98
3.189723,371,6.031800,98
3.198157,372,7.890900,98
3.206387,373,7.408800,98
3.215235,374,8.183400,98
3.223617,375,7.886500,98
3.232579,376,8.387100,98
3.241418,377,8.383300,98
3.250887,378,8.535500,98
3.259295,379,7.829200,98
3.267648,380,7.304700,98
3.276121,381,7.809700,98
3.284193,382,7.591200,98
3.292072,383,7.270200,98
3.300146,384,7.607800,98
3.307642,385,6.581400,98
3.315275,385,7.123800,98
3.322705,386,7.023600,98
3.330366,387,6.757400,98
3.337720,388,6.852200,98
3.344913,389,6.395400,98
3.352403,390,6.822100,98
3.360555,391,6.487500,98
3.368496,392,5.952200,98
3.376890,393,5.344200,98
3.385217,394,5.151300,97
3.393536,395,6.458700,97
3.402058,396,5.945700,97
3.409953,397,5.856600,97
3.418173,398,5.068700,97
3.426833,399,5.208500,97
3.434815,400,6.179800,97
3.443793,401,5.646100,97
3.452620,402,5.463400,97
3.460593,403,6.101300,97
3.468532,404,5.910700,97
3.476613,405,6.424700,97
3.485257,406,5.545600,97
3.493418,407,6.193400,97
3.502124,408,6.882700,97
3.511064,409,7.289200,97
3.519421,410,6.661300,97
3.527892,411,6.087100,97
3.536098,412,6.329300,97
3.544389,413,6.617300,97
3.552534,414,6.254400,97
3.560780,415,6.497100,97
3.568955,416,7.165000,97
3.577636,417,6.748200,97
3.585991,418,6.592000,86
3.594023,419,6.116100,86
3.602505,420,6.595000,86
3.611030,421,6.617500,86
3.619068,422,6.123600,86
3.627516,423,6.534900,86
3.635794,424,6.227700,86
3.644367,425,6.865500,86
3.652699,426,6.682100,86
3.661122,427,6.603600,86
3.668889,428,6.822700,86
3.677766,429,7.152000,86
3.685863,430,7.144000,86
3.694043,431,7.186200,86
3.702699,432,7.031500,86
3.710801,433,5.608400,86
3.719138,434,6.461700,86
3.727867,435,6.169000,86
3.736070,436,6.373100,86
3.744472,437,6.758900,86
3.752772,438,6.562400,86
3.760766,439,6.546100,86
3.769538,440,6.746500,86
3.777709,441,6.390200,86
3.786466,442,6.638600,91
3.793932,443,6.912200,91
3.802309,444,6.694900,91
3.810925,445,6.847900,91
3.819200,446,6.661600,91
3.829575,447,6.510900,91
3.837199,448,6.986000,91
3.844886,449,7.070200,91
3.852484,450,7.007700,91
3.860820,451,6.497700,91
3.868991,452,7.224000,91
3.877659,453,6.806600,91
3.885718,454,7.231400,91
3.893956,455,6.568600,91
3.902276,456,6.389100,91
3.910934,457,6.537100,91
3.919741,458,7.021200,91
3.927406,459,6.784400,91
3.936193,460,6.926300,91
3.944385,461,6.685000,91
3.952630,462,7.589500,91
3.960891,463,6.653100,91
3.969472,464,6.228300,91
3.977815,465,6.589300,91
3.986092,466,7.371200,91
3.994431,467,6.694200,91
4.002569,468,6.321100,91
4.010869,469,7.392900,91
4.019186,470,6.428100,91
4.028044,471,6.751700,91
4.036810,472,7.011500,91
4.045414,473,7.097500,91
4.054470,474,8.454100,91
4.063260,475,8.335500,91
4.072169,476,8.319000,91
4.080986,477,8.361700,91
4.089698,478,7.843300,91
4.098214,479,7.997500,91
4.106769,480,7.631100,91
4.115842,482,8.529400,91
4.124478,483,8.145500,91
4.133262,484,8.162800,91
4.141865,485,8.146100,91
4.150907,486,8.042000,91
4.159128,487,7.686100,91
4.167541,488,7.463200,91
4.175890,489,7.741200,91
4.184502,490,8.146100,97
4.192832,491,7.772000,97
4.201061,492,7.766300,97
4.209567,493,7.617700,97
4.218062,494,7.984700,97
4.226608,495,7.608300,97
4.234769,496,7.647500,97
4.243155,497,7.850700,97
4.251696,498,7.666100,97
4.260055,499,7.817100,97
4.268220,500,7.290000,97
4.276604,501,7.826600,97
4.284859,502,7.679500,97
4.293445,503,8.043400,97
4.301673,504,7.746000,97
4.310029,505,7.326600,97
4.318614,506,8.088600,97
4.326803,507,7.142400,97
4.335060,508,7.614200,97
4.343513,509,7.992200,97
4.351871,510,7.491700,97
4.359983,511,7.648500,97
4.368175,512,7.191500,97
4.376555,513,7.769600,97
4.385102,514,8.035800,100
4.393448,515,7.808100,100
4.401740,516,7.807500,100
4.410063,517,7.731900,100
4.418515,518,7.966000,100
4.426732,519,7.083000,100
4.434949,520,7.551200,100
4.443261,521,7.828400,100
4.451898,522,7.778000,100
4.460037,523,7.616800,100
4.468325,524,7.356700,100
4.476683,525,7.841200,100
4.485522,526,8.398900,100
4.493838,527,7.748400,100
4.501981,528,7.629900,100
4.510531,529,7.873900,100
4.518879,530,7.926600,100
4.527047,531,7.108300,100
4.535185,532,7.507500,100
4.543489,533,7.841000,100
4.551933,534,7.441400,100
4.560076,535,7.669400,100
4.568216,536,7.236400,100
4.576560,537,7.733200,100
4.585013,538,7.608100,100
4.593241,539,7.665300,100
4.601344,540,7.640900,100
4.609747,541,7.458000,100
4.618222,542,7.988500,100
4.626815,543,7.696900,100
4.635444,544,8.080700,100
4.644065,545,8.113800,100
4.652740,546,7.802300,100
4.661171,547,7.960600,100
4.669506,548,7.339400,100
4.678186,549,8.165700,100
4.686708,550,7.494000,100
4.695023,551,7.778900,100
4.703306,552,7.817800,100
4.711491,553,7.485700,100
4.719755,554,7.810700,100
4.727864,555,7.240500,100
4.735798,556,7.265800,100
4.743879,557,7.618000,100
4.752007,558,7.172500,100
4.759932,559,7.434600,100
4.767964,560,7.171700,100
4.776094,560,7.563800,100
4.784299,561,7.761400,99
4.792378,562,7.463700,99
4.800228,563,7.426800,99
4.808030,564,6.786100,99
4.816289,565,7.733000,99
4.824181,566,7.402700,99
4.832199,567,7.392000,99
4.840004,568,7.381000,99
4.848138,569,7.038900,99
4.855878,570,7.195300,99
4.863864,571,7.555200,99
4.872056,572,6.330100,99
4.880292,573,6.578400,99
4.890490,574,6.767600,99
4.898297,575,7.193900,99
4.905893,576,6.415000,99
4.913687,577,7.199500,99
4.922074,578,6.815600,99
4.930467,579,6.458300,99
4.938619,580,7.577700,99
4.946869,581,6.906100,99
4.955335,582,6.804800,99
4.963552,583,6.492700,99
4.972001,584,6.857800,99
4.980225,585,6.594600,96
4.988686,586,6.019000,96
4.997026,587,6.871800,96
5.005459,588,6.294300,96
5.014078,589,6.900300,96
5.022623,590,6.939200,96
5.030604,591,7.280100,96
5.038835,592,6.644700,96
5.047565,593,7.361600,96
5.057550,594,6.848000,96
5.065553,595,7.165700,96
5.073642,596,7.545100,96
5.082047,597,7.949200,96
5.090310,598,7.696600,96
5.098278,599,7.510000,96
5.106222,600,6.778000,96
5.114392,601,7.545700,96
5.122591,602,7.562400,96
5.130623,603,7.264400,96
5.140782,604,6.273800,96
5.149254,605,7.321100,96
5.157570,606,7.745000,96
5.165504,607,7.080000,96
5.173597,608,7.499500,96
5.182086,609,8.070000,96
5.190105,610,7.404200,96
5.198404,611,7.724200,96
5.206239,612,6.713500,96
5.214296,613,7.489800,96
5.223999,614,6.537300,96
5.231950,615,7.227700,96
5.239951,616,7.575400,96
5.248324,617,7.307700,96
5.256639,618,7.761200,96
5.266178,619,7.533900,96
5.273849,620,7.074600,96
5.282201,621,7.926600,96
5.290427,622,7.671600,96
5.298316,623,7.437400,96
5.306381,624,7.096200,96
5.314490,625,7.486700,96
5.322631,626,7.731300,96
5.330590,627,7.253800,96
5.338579,628,7.464600,96
5.347205,629,7.299500,96
5.355518,630,7.745400,96
5.363936,631,6.961600,96
5.372609,632,6.561200,96
5.380757,633,7.604200,97
5.389244,634,6.581100,97
5.397289,635,7.605200,97
5.405571,636,7.571200,97
5.413705,637,7.532800,97
5.422188,638,6.657100,97
5.430452,639,7.665700,97
5.438654,640,6.464300,97
5.447095,641,7.107900,97
5.455386,642,7.681900,97
5.463604,643,6.369700,97
5.472044,644,6.815300,97
5.480461,645,6.729300,97
5.488815,646,7.475300,97
5.497180,647,6.414500,97
5.505225,648,7.200300,97
5.513931,649,6.653000,97
5.522371,650,7.804900,97
5.530449,651,7.504700,97
5.539048,652,6.765500,97
5.547232,653,6.982600,97
5.557137,654,6.336900,97
5.565099,655,7.165600,97
5.573095,656,7.408000,97
5.581309,657,7.697000,96
5.589359,658,6.652900,96
5.597972,659,6.678700,96
5.605776,660,6.752000,96
5.613953,661,7.497200,96
5.622228,662,7.800600,96
5.630422,663,7.580400,96
5.639091,664,6.791100,96
5.647260,665,6.976000,96
5.655528,666,7.593600,96
5.663693,667,7.579200,96
5.672079,668,7.662800,96
5.680565,669,6.696800,96
5.688961,670,7.552500,96
5.697184,671,7.578000,96
5.705537,672,7.536500,96
5.713713,673,7.603500,96
5.722385,674,6.981400,96
5.730422,675,7.413200,96
5.738771,676,6.762600,96
5.747282,677,7.379600,96
5.755530,678,7.670100,96
5.763782,679,7.667500,96
5.772091,680,6.529200,96
5.780353,681,6.359600,96
5.788774,682,6.340300,96
5.797367,683,6.867600,96
5.805302,684,6.958600,96
5.814212,685,7.192600,96
5.822426,686,7.729100,96
5.830742,687,7.588300,96
5.838753,688,7.503600,96
5.847874,689,7.875100,96
5.856173,690,7.659900,96
5.864071,691,7.384200,96
5.872033,692,7.335300,96
5.880627,693,6.670100,96
5.888734,694,7.197300,96
5.897174,695,6.749400,96
5.905313,696,7.295400,96
5.913794,697,6.855000,96
5.922361,698,6.912600,96
5.930434,699,7.389800,96
5.938746,700,6.892600,96
5.947061,701,6.797900,96
5.955928,702,7.056300,96
5.963847,703,7.448800,96
5.971887,704,7.433100,96
5.980434,705,7.052000,95
5.988683,706,6.381100,95
5.997277,707,6.867200,95
6.005330,708,7.315100,95
6.013783,709,7.741800,95
6.022147,710,7.791100,95
6.030604,711,7.793300,95
6.038979,712,6.893100,95
6.047670,713,7.511400,95
6.055776,714,7.561500,95
6.063860,715,7.617700,95
6.072053,716,7.579700,95
6.080718,717,7.097000,95
6.088834,718,7.209600,95
6.097122,719,7.751900,95
6.105492,720,7.465000,95
6.113847,721,7.728000,95
6.122553,722,6.808700,95
6.130713,723,7.471500,95
6.138883,724,7.649800,95
6.146773,725,6.560900,95
6.155223,726,6.878500,95
6.163467,727,6.610100,95
6.172021,728,6.649600,95
6.180102,729,6.237300,95
6.188516,730,6.073600,95
6.196326,731,5.930600,95
6.204604,732,6.767700,95
6.212922,733,6.576800,95
6.221206,734,5.845200,95
6.228924,735,6.077200,95
6.237038,736,6.077900,95
6.245744,737,6.375900,95
6.253904,738,6.345300,95
6.261933,739,6.190500,95
6.270461,740,5.359000,95
6.279380,741,4.626800,95
6.287781,742,6.173400,95
6.295742,743,6.058800,95
6.303919,744,5.206600,95
6.312476,745,6.693300,95
6.320813,746,5.997100,95
6.329508,747,6.738700,95
6.337771,748,6.477000,95
6.346216,749,5.933500,95
6.354834,750,5.542500,95
6.363497,751,7.196300,95
6.371511,752,7.351100,95
6.379893,753,6.557300,85
6.388683,754,6.257100,85
6.396638,755,6.264700,85
6.404869,756,6.508600,85
6.413513,757,6.643500,85
6.421690,758,6.312800,85
6.430625,759,6.779100,85
6.438364,760,7.196900,85
6.446751,761,7.029000,85
6.455203,762,6.802500,85
6.463108,763,7.324700,85
6.471789,764,6.491200,85
6.480414,765,6.621200,85
6.489333,766,7.013200,85
6.497240,767,7.371800,85
6.505437,768,7.163100,85
6.516292,769,8.598200,85
6.525929,770,9.145600,85
6.536077,772,9.619300,85
6.544111,773,7.394700,85
6.552137,774,7.474100,85
6.559872,775,7.321900,85
6.567729,776,6.836900,85
