realtime,framenum,rendertime(ms),GPUUtil(%)
0.170225,10,5.579400,81
0.188820,10,0.000500,81
0.189129,10,0.310600,81
0.192841,10,3.400400,81
0.201026,11,6.294500,81
0.209884,12,4.622200,81
0.218489,13,6.047000,81
0.226454,14,6.034600,81
0.234574,15,5.632100,81
0.242910,16,6.454900,81
0.251769,17,15.314500,81
0.259784,18,5.627100,81
0.269443,19,5.158500,81
0.276869,20,5.644700,81
0.284968,21,6.235200,81
0.292844,22,5.604900,81
0.300504,23,6.008400,81
0.309658,24,4.768900,81
0.319304,26,5.881500,81
0.326198,26,6.041800,82
0.333866,27,5.965100,82
0.343005,28,5.573400,82
0.351119,29,5.541000,82
0.359270,30,6.284900,82
0.367031,31,5.541500,82
0.376138,32,4.729300,82
0.384813,33,6.497300,82
0.393143,34,4.655000,82
0.402701,35,6.108900,82
0.410864,36,6.010600,82
0.418693,38,6.407700,82
0.426087,38,6.372200,82
0.433927,39,6.128800,82
0.442558,40,6.147100,82
0.451799,41,5.012300,82
0.459767,42,6.522100,82
0.467295,43,5.547200,82
0.476228,44,6.471500,82
0.484387,45,6.586400,82
0.493262,46,6.757000,82
0.501187,47,6.532100,82
0.509474,48,4.788700,82
0.518640,49,6.429200,82
0.526527,50,5.346200,80
0.535246,51,6.496200,80
0.543023,52,5.730100,80
0.551466,53,6.029200,80
0.560037,54,5.052600,80
0.568687,55,6.138600,80
0.576900,56,4.915900,80
0.584769,57,5.790400,80
0.593794,58,5.315500,80
0.601364,59,12.885200,80
0.609903,60,6.390900,80
0.618796,61,6.073300,80
0.626945,62,5.722800,80
0.634599,63,5.375200,80
0.642917,64,4.120500,80
0.651657,65,6.410000,80
0.659854,66,4.257500,80
0.670199,68,5.384800,80
0.676340,68,5.354600,80
0.684280,69,5.861500,80
0.693114,70,5.272100,80
0.701714,71,4.346100,80
0.709995,72,6.103400,80
0.718499,73,6.118800,80
0.726598,74,6.168800,79
0.734100,75,5.196400,79
0.743788,76,5.372300,79
0.751715,77,5.858200,79
0.760696,78,5.368400,79
0.768717,79,5.911500,79
0.777050,80,5.744200,79
0.785507,81,6.159700,79
0.792953,82,5.378500,79
0.801982,83,5.382500,79
0.810317,84,6.175300,79
0.818503,85,5.850200,79
0.826838,86,5.678200,79
0.835409,87,4.218900,79
0.844814,88,5.217000,79
0.852186,89,5.352600,79
0.861204,90,4.937700,79
0.868898,91,5.143000,79
0.876923,92,5.660800,79
0.885374,93,6.040400,79
0.894083,94,4.437900,79
0.901459,95,5.317700,79
0.909532,96,6.059800,79
0.918703,97,6.226600,79
0.926757,98,5.290500,78
0.934859,99,6.060400,78
0.943421,100,6.114400,78
0.951479,101,4.052300,78
0.960237,102,5.303400,78
0.968761,103,5.753500,78
0.977186,104,5.676500,78
0.985720,105,6.181900,78
0.994027,106,4.422700,78
1.002041,107,4.320400,78
1.010200,108,6.274800,78
1.018361,109,5.742400,78
1.026758,110,6.130100,78
1.035429,111,3.668300,78
1.043858,112,6.214600,78
1.052313,113,6.135000,78
1.060015,114,5.345300,78
1.070560,115,5.187800,78
1.077925,116,5.238100,78
1.085338,117,4.063500,78
1.093439,118,6.186300,78
1.101738,119,6.150000,78
1.109849,120,5.853300,78
1.118810,121,5.245500,78
1.126948,122,5.430800,78
1.134982,123,5.960300,78
1.143450,124,4.918000,78
1.151806,125,4.045200,78
1.160040,126,4.772900,78
1.168008,127,5.772400,78
1.177684,128,5.828000,78
1.184951,129,5.141000,78
1.193432,130,4.108800,78
1.203475,131,5.761500,78
1.210743,132,5.544000,78
1.218093,133,5.756500,78
1.226182,134,5.838300,78
1.235245,135,4.822200,78
1.244039,136,5.177000,78
1.251560,137,5.226900,78
1.260075,138,4.583200,78
1.268264,139,5.719800,78
1.278628,141,4.572300,78
1.284686,141,5.092000,78
1.293965,142,5.375300,78
1.302020,143,4.328300,78
1.309954,144,5.754800,78
1.318291,145,6.010700,78
1.327185,146,4.492200,78
1.336735,147,5.075900,78
1.343846,148,5.118100,78
1.351483,149,5.252700,78
1.360639,150,5.133800,78
1.368923,151,5.366600,78
1.376899,152,4.274100,78
1.385748,153,4.589000,78
1.393611,154,5.471100,78
1.401471,155,5.802500,78
1.410304,156,6.122300,78
1.418171,157,3.937400,78
1.426633,158,3.929500,78
1.436645,159,5.423400,78
1.443726,160,5.507400,78
1.452094,161,6.021300,78
1.460062,162,4.240000,78
1.468598,163,5.785000,78
1.476685,164,6.062600,78
1.484607,165,6.057600,78
1.493657,166,4.773000,78
1.501714,167,6.077100,78
1.509762,168,5.875100,78
1.518104,169,4.652600,78
1.526118,170,5.709300,78
1.535340,171,4.857700,78
1.544174,172,5.265700,78
1.551793,173,5.152800,78
1.559925,174,5.787500,78
1.568493,175,5.618300,78
1.577089,176,5.722000,78
1.585515,177,6.122800,78
1.593668,178,5.823500,78
1.603059,179,5.699100,78
1.610238,180,5.359000,78
1.618122,181,5.739300,78
1.627197,182,5.309900,78
1.635154,183,3.682800,78
1.643573,184,6.140100,78
1.651352,185,5.695900,78
1.660060,186,4.881600,78
1.668909,187,6.139900,78
1.676475,188,5.262400,78
1.685185,189,4.948100,78
1.693498,190,4.698200,78
1.702363,191,5.132000,78
1.710184,192,5.822300,78
1.718144,193,5.613800,78
1.726730,194,6.200800,78
1.735303,195,14.773200,78
1.743468,196,5.893500,78
1.751348,197,5.661200,78
1.760281,198,5.044000,78
1.770114,199,5.159900,78
1.776924,200,4.445300,78
1.785206,201,4.735600,78
1.793965,202,5.089000,78
1.801652,203,6.277700,78
1.811129,204,5.337500,78
1.818481,205,5.120600,78
1.827251,206,5.442800,78
1.835211,207,5.389000,78
1.843259,208,5.901800,78
1.852178,209,5.322000,78
1.860603,210,6.188600,78
1.868902,211,14.487500,78
1.876768,212,5.224000,78
1.885084,213,4.587400,78
1.893353,214,6.452600,78
1.901187,215,5.819400,78
1.910102,216,4.630300,78
1.918810,217,6.158800,78
1.926975,218,5.816200,79
1.935008,219,5.852800,79
1.943522,220,4.806200,79
1.952362,221,5.176500,79
1.960543,222,6.235600,79
1.968079,223,5.057800,79
1.977475,224,5.933700,79
1.985445,225,5.907200,79
1.993552,226,5.676400,79
2.002269,227,4.815800,79
2.009869,228,6.730600,79
2.018628,229,5.875800,79
2.026663,230,5.501200,79
2.034869,231,4.702100,79
2.043480,232,4.778900,79
2.052457,233,5.233700,79
2.060674,234,4.299200,79
2.068039,235,5.203500,79
2.076656,236,5.305900,79
2.085536,237,5.122700,79
2.093789,238,5.917700,79
2.101192,239,5.803000,79
2.110226,240,4.722500,79
2.118800,241,4.278200,79
2.126407,242,6.185100,79
2.134593,243,5.698400,79
2.143796,244,5.408500,79
2.151495,245,5.621600,79
2.160730,246,5.348000,79
2.168195,247,5.425600,79
2.176661,248,5.392700,79
2.185619,249,5.326500,79
2.194200,250,4.343800,79
2.202145,251,5.842100,79
2.210916,252,6.502600,79
2.218393,253,5.856700,79
2.227547,254,4.748500,79
2.235570,255,5.804500,79
2.243615,256,4.252300,79
2.252061,257,4.368200,79
2.260443,258,6.166500,79
2.270067,259,5.173800,79
2.277570,260,5.218400,79
2.285030,261,5.674100,79
2.293983,262,5.076900,79
2.301227,263,4.842600,79
2.310198,264,6.285600,79
2.318335,265,5.931700,79
2.326904,266,6.497200,79
2.335640,267,4.308700,79
2.343690,268,4.382300,79
2.351533,269,5.724700,79
2.360678,270,5.379200,79
2.368225,271,6.293200,79
2.377455,272,5.987300,79
2.385860,273,4.402300,79
2.393060,274,5.153700,79
2.403369,275,5.924200,79
2.410724,276,5.231200,79
2.418103,277,5.570400,79
2.426261,278,5.729100,79
2.436201,279,5.590400,79
2.445123,281,5.161300,79
2.451329,281,5.412600,79
2.460318,282,5.344000,79
2.468821,283,5.807600,79
2.477288,284,5.759200,79
2.485014,285,5.485100,79
2.493379,286,6.457100,79
2.501820,287,6.400700,79
2.510307,288,5.819900,79
2.518436,289,5.702800,79
2.526949,290,5.705600,80
2.535568,291,4.251500,80
2.543542,292,5.846900,80
2.551110,293,5.902700,80
2.560133,294,4.810200,80
2.568624,295,6.180000,80
2.576828,296,5.433100,80
2.585726,297,5.343000,80
2.593355,298,5.938900,80
2.602263,299,4.438000,80
2.610355,300,5.931900,80
2.618504,301,4.542100,80
2.626645,302,5.193000,80
2.635873,303,5.425200,80
2.644734,304,4.766100,80
2.652119,305,5.679600,80
2.659804,306,5.851300,80
2.670214,307,5.115000,80
2.677638,308,5.069800,80
2.685684,309,6.089300,80
2.694041,310,6.118200,80
2.701811,311,5.371700,80
2.710191,312,5.647000,80
2.718808,313,6.230800,79
2.730260,315,5.164200,79
2.736326,315,5.379700,79
2.744400,316,5.804300,79
2.752840,317,6.209100,79
2.761395,318,6.163800,79
2.770061,319,5.903900,79
2.777387,320,5.127200,79
2.785497,321,13.237500,79
2.793422,322,5.649100,79
2.802522,323,5.227200,79
2.810957,324,4.456400,79
2.819633,325,5.088500,79
2.827314,326,5.783500,79
2.836213,327,6.089800,79
2.845370,328,4.210600,79
2.852785,329,6.829100,79
2.860469,330,4.104000,79
2.869704,331,5.149000,79
2.877342,332,5.831800,79
2.885768,333,5.736200,79
2.894922,334,5.390200,79
2.902769,335,4.038200,79
2.910844,336,5.668600,79
2.919625,337,6.327500,78
2.930449,338,5.621600,78
2.938558,340,6.140000,78
2.944433,340,4.735500,78
2.953043,341,4.196400,78
2.960649,342,5.313500,78
2.969769,343,5.469900,78
2.977916,344,5.639100,78
2.985607,345,5.215600,78
2.994859,346,8.722300,78
3.003006,347,6.217700,78
3.010089,348,4.786000,78
3.019386,349,5.034000,78
3.027552,350,6.210700,78
3.035922,351,5.879800,78
3.044220,352,4.799100,78
3.052994,353,5.083300,78
3.061000,354,4.568300,78
3.070746,355,5.264500,78
3.079357,357,4.548900,78
3.085757,357,5.288400,78
3.096468,358,5.097700,78
3.103422,359,4.993200,78
3.110691,360,4.774300,78
3.119153,362,4.724700,79
3.128062,362,4.559500,79
3.136392,363,4.892600,79
3.144841,364,4.761600,79
3.154293,365,5.721800,79
3.161438,366,4.767800,79
3.169208,367,5.536800,79
3.178000,368,4.781600,79
3.186350,369,6.170400,79
3.194183,370,5.921500,79
3.203054,371,4.722600,79
3.210662,372,5.910400,79
3.218887,373,4.629200,79
3.228015,374,5.702600,79
3.236398,375,6.084000,79
3.244323,376,5.987700,79
3.253877,378,5.515400,79
3.260284,378,5.891100,79
3.269924,379,4.187000,79
3.278476,380,4.208200,79
3.286565,381,5.213600,79
3.295364,382,6.474600,79
3.302833,383,13.942000,79
3.311647,384,5.202800,79
3.319619,386,5.890900,79
3.327934,386,4.136400,79
3.336073,387,5.785800,79
3.345027,388,5.283500,79
3.353424,389,5.159200,79
3.361113,390,5.819100,79
3.369907,391,4.555100,79
3.378512,392,5.882400,79
3.386382,393,5.760400,79
3.394896,394,5.909600,79
3.403585,395,5.066000,79
3.409622,396,5.328200,79
3.419143,397,5.973100,79
3.427951,398,5.600400,79
3.435880,399,5.528800,79
3.445199,400,5.323500,79
3.453054,401,5.643400,79
3.461948,402,5.295600,79
3.470467,403,5.797700,79
3.478328,404,6.088800,79
3.485998,405,4.773000,79
3.495203,406,5.488100,79
3.503255,407,3.971200,79
3.511345,408,6.031600,79
3.519649,410,4.818000,79
3.528002,410,4.585600,79
3.536586,411,6.210300,79
3.544724,412,5.925500,79
3.553306,413,4.969400,79
3.561303,414,5.859000,79
3.569584,415,5.610100,79
3.578639,416,5.100700,79
3.586642,417,5.154400,79
3.594885,418,4.342700,79
3.602620,419,5.692300,79
3.611175,420,4.742000,79
3.620363,421,5.398900,79
3.628388,422,5.934000,79
3.636831,423,5.657700,79
3.644985,424,5.804200,79
3.653386,425,6.067100,79
3.660998,426,5.548700,79
3.671187,427,5.653300,79
3.678474,428,5.502700,79
3.688282,430,4.796300,79
3.694382,430,5.344500,79
3.703626,431,4.975300,79
3.711888,432,4.660700,79
3.719498,433,5.815300,79
3.730317,434,6.847800,79
3.737843,435,5.147200,79
3.745289,436,4.014600,79
3.753595,437,4.343400,79
3.761822,438,6.169800,79
3.769568,439,5.482500,79
3.778405,440,4.767300,79
3.786954,441,5.753500,79
3.795288,442,6.126200,79
3.802627,443,5.064200,79
3.811725,444,5.042500,79
3.820365,445,6.195100,79
3.828414,446,6.059300,79
3.836324,447,5.992000,79
3.844941,448,6.146100,79
3.853374,449,6.085800,79
3.861428,450,5.803100,79
3.870460,451,5.264500,79
3.878358,452,5.900600,79
3.886484,453,5.223400,79
3.893119,454,6.121400,79
3.903271,455,5.940200,79
3.911711,456,6.203600,79
3.920305,457,4.288500,78
3.930133,459,5.639400,78
3.936336,459,5.393200,78
3.945349,460,5.343300,78
3.953648,461,6.101400,78
3.962233,462,6.360000,78
3.969574,463,5.480100,78
3.978822,464,5.202400,78
3.986890,465,5.288600,78
3.995007,466,5.886000,78
4.005083,468,6.324500,78
4.011017,468,5.088400,78
4.018035,469,4.843500,78
4.028408,470,6.008000,78
4.036616,471,3.986600,78
4.044934,472,6.248400,78
4.052856,473,6.129900,78
4.060624,474,5.389700,78
4.069074,475,5.665800,78
4.078714,476,5.867200,78
4.087016,477,5.747800,78
4.095064,478,5.794000,78
4.103840,479,5.042000,78
4.111586,480,6.149500,78
4.120393,481,4.911800,78
4.129967,482,4.942000,78
4.136706,483,5.200600,78
4.144900,484,4.379400,78
4.153857,485,5.113500,78
4.162086,486,5.859200,78
4.169709,487,5.461400,78
4.178420,488,5.802600,78
4.186901,489,6.280600,78
4.195474,490,6.204100,78
4.203966,491,6.324000,78
4.211557,492,5.409300,78
4.219913,493,5.703800,78
4.228601,494,6.139100,78
4.236555,495,4.598000,78
4.245153,496,5.161700,78
4.253832,497,6.361300,78
4.261911,498,4.226500,78
4.272114,500,4.874300,78
4.278129,500,5.225000,78
4.286775,501,4.840300,78
4.295254,502,6.211100,78
4.303666,503,4.182600,78
4.311869,504,4.294200,78
4.320240,505,6.127200,79
4.329870,506,5.291600,79
4.337033,507,5.367400,79
4.344880,508,6.094600,79
4.353712,509,4.408700,79
4.361942,510,6.364500,79
4.370323,511,4.723500,79
4.378846,512,6.032300,79
4.387237,513,5.785900,79
4.394928,514,5.371300,79
4.403892,515,5.124100,79
4.411529,516,5.254600,79
4.420596,517,5.201700,79
4.428636,518,6.169800,79
4.436505,519,3.960800,79
4.445782,520,5.216700,79
4.453736,521,6.058000,79
4.462547,522,4.319400,79
4.470492,523,6.274300,79
4.478420,524,4.194400,79
4.488236,526,5.487400,79
4.494741,526,5.527400,79
4.503120,527,4.837600,79
4.511427,528,6.129600,79
4.520795,529,8.544900,78
4.529847,530,5.194800,78
4.538425,531,4.287300,78
4.546031,533,4.838900,78
4.552581,533,5.606200,78
4.562121,534,5.952900,78
4.569378,535,5.187000,78
4.578295,536,5.757400,78
4.586882,537,6.352900,78
4.595211,538,6.102900,78
4.603871,539,6.299200,78
4.611612,540,5.762700,78
4.620332,541,4.144000,78
4.628459,542,5.924500,78
4.636652,543,3.924200,78
4.645645,544,5.866000,78
4.653312,545,5.065800,78
4.662045,546,4.285900,78
4.670425,547,12.667100,78
4.678301,548,5.769500,78
4.686721,549,4.681100,78
4.695427,550,6.398300,78
4.703439,551,3.853000,78
4.711794,552,6.083100,78
4.720397,553,4.219800,77
4.729626,554,4.902800,77
4.736718,555,5.520800,77
4.745209,556,5.002500,77
4.753856,557,4.150500,77
4.762691,558,4.445500,77
4.770580,559,5.717600,77
4.778542,560,6.165800,77
4.786720,561,5.335700,77
4.795169,562,6.171700,77
4.803487,563,6.068900,77
4.811632,564,3.923000,77
4.820400,565,6.228100,77
4.828401,566,5.191500,77
4.836202,567,3.872900,77
4.845493,568,13.164800,77
4.853661,569,4.285600,77
4.861814,570,6.005300,77
4.870446,571,5.003100,77
4.878330,572,5.787800,77
4.886664,573,6.050200,77
4.895344,574,3.762800,77
4.903322,575,5.733200,77
4.911946,576,6.311400,77
4.920275,577,6.083500,77
4.929465,578,5.073900,77
4.938475,579,4.013200,77
4.945911,580,6.304900,77
4.953606,581,7.247200,77
4.961781,582,6.052600,77
4.970067,583,4.425500,77
4.978750,584,5.893900,77
4.986994,585,7.252600,77
4.995532,586,4.146500,77
5.004063,587,6.104500,77
5.012253,588,5.778500,77
5.020053,589,6.172900,77
5.028768,590,4.355000,77
5.036290,591,4.399500,77
5.045012,592,5.097900,77
5.053541,593,6.072200,77
5.062024,594,6.102800,77
5.070503,595,6.127600,77
5.078326,596,5.751000,77
5.086613,597,6.073000,77
5.095145,598,6.086800,77
5.103555,599,3.931600,77
5.111737,600,6.080500,77
5.120463,601,6.339600,77
5.129732,602,6.747000,77
5.136717,603,13.741100,77
5.145155,604,3.972200,77
5.153864,605,6.207800,77
5.162519,606,6.190900,77
5.169712,607,5.092900,77
5.178820,608,5.146500,77
5.186831,609,5.683100,77
5.195437,610,4.286400,77
5.203779,611,6.074300,77
5.212072,612,3.882700,77
5.220402,613,6.056800,77
5.228556,614,5.919900,77
5.236523,615,5.370800,77
5.245271,616,14.120800,77
5.253929,617,4.304300,77
5.262136,618,5.281800,77
5.270520,619,4.587800,77
5.278374,620,3.889500,77
5.286613,621,4.653200,77
5.295131,622,6.066700,77
5.303340,623,5.777200,77
5.311741,624,4.095400,77
5.320101,625,6.078200,78
5.329607,626,5.022000,78
5.338822,628,5.950000,78
5.344598,628,4.524300,78
5.353465,629,5.028000,78
5.361948,630,4.321400,78
5.371135,631,5.513000,78
5.378819,632,5.620200,78
5.387203,633,6.058300,78
5.396748,635,5.578200,78
5.403010,635,5.471700,78
5.411785,636,4.083500,78
5.420261,637,5.081500,78
5.428596,638,6.010900,78
5.436592,639,3.837600,78
5.444894,640,6.077800,78
5.453500,641,6.227000,78
5.461930,642,6.200500,78
5.472241,644,4.492500,78
5.478241,644,5.202200,78
5.487025,645,5.261200,78
5.494470,646,5.685900,78
5.503120,647,4.843300,78
5.511689,648,6.108500,78
5.520549,650,4.474600,78
5.528381,650,5.360500,78
5.536556,651,6.224100,78
5.546307,652,4.938000,78
5.553574,653,5.174900,78
5.561528,654,5.761100,78
5.569861,655,4.530400,78
5.578516,656,6.196600,78
5.587140,657,5.823400,78
5.595070,658,5.241200,78
5.603490,659,6.067400,78
5.611735,660,5.871400,78
5.620567,661,5.147200,78
5.628594,662,6.110300,78
5.636880,663,5.069700,78
5.645172,664,5.845200,78
5.653301,665,5.852800,78
5.662273,666,5.399200,78
5.670165,667,5.797600,78
5.678221,668,5.825700,78
5.686577,669,6.178700,78
5.694664,670,5.735700,78
5.703589,671,5.141900,78
5.712224,672,4.263400,78
5.720597,673,6.133800,79
5.729458,674,4.934900,79
5.738335,675,5.340400,79
5.746064,676,4.507700,79
5.753651,677,6.123000,79
5.762339,678,6.344900,79
5.770709,679,4.742500,79
5.778705,680,6.165400,79
5.787623,681,6.135600,79
5.795257,682,5.261300,79
5.803734,683,6.226400,79
5.811958,684,4.097700,79
5.820717,685,5.306800,79
5.828692,686,5.163500,79
5.836471,687,5.907400,79
5.845126,688,5.089000,79
5.853694,689,6.094000,79
5.862175,690,4.264700,79
5.870599,691,6.174300,79
5.878468,692,4.221800,79
5.887305,693,6.107000,79
5.895915,694,6.198500,79
5.903568,695,4.048800,79
5.911943,696,6.128900,79
5.920558,698,4.278100,78
5.928124,698,5.278900,78
5.936409,699,6.051800,78
5.944609,700,6.116700,78
5.952884,701,6.017300,78
5.961466,702,5.043800,78
5.970338,703,4.817000,78
5.978629,704,6.023900,78
5.986670,705,5.094100,78
5.995323,706,3.607000,78
6.003748,707,6.153800,78
6.011727,708,3.930200,78
6.021339,709,5.995000,78
6.028859,710,5.330700,78
6.036543,711,3.922900,78
6.045662,712,5.039800,78
6.053838,713,6.111700,78
6.063313,714,5.116400,78
6.070700,715,4.825000,78
6.078534,716,4.182300,78
6.086357,717,5.030700,78
6.095121,718,6.267500,78
6.103229,719,5.820900,78
6.111919,720,5.073200,78
6.120544,721,5.183500,77
6.129149,722,5.629000,77
6.138716,724,5.707300,77
6.144813,724,4.981300,77
6.153627,725,5.039200,77
6.163331,727,5.419100,77
6.169182,727,5.014600,77
6.178597,728,5.072300,77
6.186557,729,5.070800,77
6.195195,730,6.223300,77
6.203584,731,6.101700,77
6.211848,732,4.017100,77
6.220427,733,12.596400,77
6.228653,734,6.133400,77
6.236427,735,4.409600,77
6.245170,736,5.158400,77
6.253662,737,4.138800,77
6.262402,738,4.385400,77
6.271530,739,5.477400,77
6.278543,740,5.027400,77
6.286741,741,4.123000,77
6.295971,742,5.382400,77
6.304052,743,4.087700,77
6.311567,744,5.099300,77
6.319970,745,4.993100,77
6.329188,746,5.678700,77
6.336589,747,5.099000,77
6.345002,748,3.645000,77
6.353516,749,4.164800,77
6.361760,750,5.945400,77
6.370369,751,5.420400,77
6.379359,752,5.365600,77
6.386914,753,5.375900,77
6.396483,754,4.920100,77
6.404053,755,6.091200,77
6.411501,756,5.025900,77
6.420469,757,4.941100,77
6.428172,758,5.574400,77
6.436422,759,5.815900,77
6.444570,760,4.463000,77
6.452731,761,4.119700,77
6.461845,762,5.483300,77
6.469458,763,5.572200,77
6.478255,764,5.663800,77
6.486235,765,5.647400,77
6.495245,766,5.122700,77
6.503392,767,5.664100,77
6.511578,768,5.690500,77
6.520356,769,4.955300,76
6.529182,770,5.535300,76
6.536671,771,13.024700,76
6.545121,772,3.947400,76
6.553583,773,4.859300,76
6.561745,774,4.558600,76
6.569333,775,5.643500,76
6.577937,776,5.214000,76
