realtime,framenum,rendertime(ms),fps,GPUUtil(%)
0.241503,8,7.3729,384.118001,53
0.279347,8,0.0008,263.866863,53
0.279792,8,0.0007,263.866863,53
0.293422,9,7.1844,231.762422,53
0.309478,10,10.0413,206.011979,53
0.325967,11,7.7882,184.97087,53
0.341393,12,6.7042,168.719609,53
0.358306,13,7.9941,154.439836,52
0.374498,14,7.2744,142.176591,52
0.39187,15,7.4325,131.555175,52
0.408826,16,4.6651,122.241917,52
0.428383,17,8.1636,113.597422,52
0.442343,18,5.3719,107.687796,52
0.460879,19,6.326,101.110837,52
0.475222,20,8.1649,96.272582,52
0.492342,21,16.2289,91.340745,52
0.508918,22,5.3628,86.904077,52
0.52542,23,5.3302,82.942123,52
0.541906,24,7.4495,79.276847,52
0.55955,25,6.1236,75.803249,50
0.5749,26,5.9524,72.926517,50
0.592732,27,5.6859,69.969883,50
0.608747,28,7.2698,67.371311,50
0.625513,29,5.2063,65.008418,50
0.642649,30,5.7416,62.624898,50
0.659645,31,5.7125,60.522784,50
0.67681,32,5.5153,58.470801,50
0.692545,33,6.2872,56.728308,50
0.708627,34,7.1323,55.041206,50
0.725735,35,5.2205,53.396146,50
0.741398,36,7.2836,51.908045,50
0.758688,37,5.5014,50.426118,50
0.775852,38,5.5066,49.012264,50
0.792353,39,5.0427,47.730388,50
0.808961,40,5.1223,46.476976,50
0.825473,41,5.073,45.334581,50
0.842097,42,7.645,44.219873,50
0.859333,43,5.8706,43.141569,50
0.875758,44,5.391,42.119693,50
0.892651,45,8.288,41.175308,50
0.908318,46,6.7595,40.273159,50
0.927566,47,7.1696,39.30557,50
0.942095,48,5.7698,38.526644,50
0.959604,49,5.648,37.697919,50
0.975955,50,4.8546,36.931754,50
0.992976,51,5.5631,36.185717,50
1.008791,52,6.8541,35.489254,50
1.025254,53,5.305,34.82572,50
1.042596,54,5.0875,34.13457,50
1.058605,55,6.6023,33.524793,50
1.075662,56,11.6295,32.890305,50
1.092555,57,5.3006,32.303936,50
1.10953,58,5.1977,31.725211,50
1.126161,59,5.5338,31.174337,50
1.143034,60,10.8811,30.629047,50
1.159017,61,7.0414,30.143907,50
1.17597,62,5.9669,29.988994,50
1.193663,63,5.953,29.974917,50
1.208868,64,5.5981,30.034555,50
1.226639,65,6.3905,30.031804,50
1.242852,66,8.2095,29.983401,50
1.259351,67,7.2078,30.043479,50
1.275678,68,6.7229,30.050367,50
1.29195,69,7.8025,30.058295,50
1.30827,70,6.9818,30.031891,50
1.32532,71,5.311,30.026462,50
1.342654,72,5.9265,29.966036,50
1.359887,73,7.6957,29.958295,52
1.375604,74,7.8027,29.979152,52
1.392323,75,7.9938,29.996616,52
1.40816,76,7.337,30.02896,52
1.426619,77,6.1552,30.052562,52
1.443387,78,7.9121,29.980423,52
1.458428,79,6.4606,30.061515,52
1.475037,80,5.1169,30.004711,52
1.492643,81,5.23,29.990148,52
1.509872,82,5.44,29.965701,52
1.525614,83,6.6807,29.999658,52
1.541843,84,5.0082,30.006923,52
1.557996,85,6.6325,30.048887,52
1.575593,86,5.1546,29.984333,52
1.592651,87,5.1906,29.997747,52
1.608129,88,6.1803,30.019173,52
1.62598,89,6.034,29.979293,52
1.641932,90,7.4494,30.021456,52
1.659753,91,6.644,30.000501,52
1.674825,92,6.1183,30.054106,52
1.692337,93,6.0985,30.010125,52
1.709012,94,7.5483,29.993794,52
1.726097,95,5.723,29.991617,52
1.742096,96,4.56,29.978949,52
1.760014,97,6.5493,29.963891,49
1.775584,98,6.8558,30.005509,49
1.792907,99,11.0625,29.989435,49
1.809277,100,5.355,29.992352,49
1.826155,101,5.7223,29.981654,49
1.841581,102,6.8831,30.010366,49
1.859848,103,6.5906,29.983416,49
1.87581,104,7.1475,30.004045,49
1.892204,105,7.9678,30.014761,49
1.908773,106,7.3857,29.995003,49
1.926369,107,6.3995,30.026339,49
1.942858,108,6.8978,29.978392,49
1.959321,109,7.7828,30.007874,51
1.976214,110,5.7084,29.996688,51
1.992468,111,6.4703,30.014968,51
2.008777,112,5.1557,30.001911,51
2.026429,113,6.2834,29.963364,51
2.042944,114,9.7716,29.992175,51
2.060932,115,6.7571,29.948013,51
2.076045,116,5.6526,29.987237,51
2.092854,117,6.4353,29.992826,51
2.109924,118,5.5347,29.98398,51
2.126062,119,7.2233,30.003237,51
2.142563,120,4.946,30.011032,51
2.159652,121,7.5489,29.987297,50
2.176871,122,4.7107,29.967099,50
2.193642,123,5.4776,29.991701,50
2.210333,124,7.1382,29.956455,50
2.226013,125,7.709,30.001878,50
2.242631,126,5.0923,29.992481,50
2.260432,127,6.1805,29.96718,50
2.276064,128,4.6595,29.981241,50
2.292742,129,10.3461,29.962801,50
2.309758,130,7.4045,29.958995,50
2.326532,131,7.933,29.963289,50
2.343484,132,6.1557,29.96853,50
2.359577,133,6.6335,29.993671,50
2.375909,134,7.4622,29.984189,50
2.393237,135,7.1667,29.964151,50
2.409344,136,7.2016,29.955423,50
2.426437,137,7.2749,29.994019,50
2.443271,138,5.7709,29.98597,50
2.460328,139,5.85,29.953252,50
2.475472,140,6.4896,29.984447,50
2.492996,141,5.3566,29.987768,50
2.510045,142,7.8358,30.00387,50
2.527273,143,6.1468,29.961353,50
2.542977,144,6.9296,29.96378,50
2.559734,145,5.6466,29.946967,50
2.576277,146,7.6869,29.980653,50
2.593182,147,6.9564,29.986995,50
2.609828,148,6.8802,29.948474,50
2.626413,149,5.3253,29.987198,50
2.6434,150,5.5503,29.966955,50
2.659781,151,7.441,29.995069,50
2.676191,152,7.2097,29.95641,50
2.692874,153,6.7978,29.982682,50
2.709925,154,6.9401,29.975944,50
2.727763,155,12.6913,29.962436,50
2.742958,156,5.7542,29.975573,50
2.760059,157,5.8041,29.998041,50
2.776138,158,7.734,29.985292,50
2.793108,159,7.0854,29.990268,50
2.809909,160,5.3543,29.978221,50
2.826347,161,7.2923,29.992961,50
2.842923,162,5.0653,29.966303,50
2.860664,163,8.3477,29.990835,50
2.876114,164,5.9897,29.983482,50
2.893375,165,7.2174,29.956656,50
2.909958,166,5.1574,29.958938,50
2.928085,167,8.7923,29.971907,50
2.943916,168,6.9068,29.976573,50
2.960114,169,7.103,29.992883,50
2.976818,170,5.6916,29.994889,50
2.993963,171,7.7989,29.97271,50
3.009729,172,6.528,29.976316,50
3.027448,173,7.9155,29.991168,50
3.043421,174,7.495,29.99476,50
3.060442,175,8.0278,30.013984,50
3.076504,176,7.476,29.994031,50
3.093564,177,7.5204,29.984048,50
3.109795,178,6.6441,30.010029,50
3.126268,179,7.1172,29.995495,50
3.142764,180,6.5813,29.995786,50
3.159736,181,5.4995,29.992058,52
3.179427,182,6.2058,29.929534,52
3.194517,183,11.2537,29.965626,52
3.211379,184,7.458,29.962403,52
3.226346,185,5.9422,29.989147,52
3.244012,186,5.9728,29.95595,52
3.260017,187,6.9266,29.9921,52
3.276365,188,4.7863,29.98897,52
3.293084,189,6.9717,29.984717,52
3.310316,190,7.1839,29.97841,52
3.326189,191,4.8287,29.993782,52
3.343121,192,5.6882,30.013476,52
3.360079,193,5.6804,29.977406,50
3.377251,194,11.5281,29.960485,50
3.393664,195,10.3266,29.983197,50
3.410442,196,7.4327,29.971386,50
3.426827,197,5.3969,29.977358,50
3.444101,198,5.0019,29.974899,50
3.461168,199,5.0991,29.953458,50
3.478172,200,5.013,29.909214,50
3.493345,201,6.1677,29.97247,50
3.510218,202,7.2295,29.981462,50
3.527048,203,5.8902,29.97702,50
3.54386,204,4.6748,29.964764,50
3.560232,205,7.2839,29.967572,49
3.576166,206,5.1108,29.988365,49
3.593842,207,5.425,29.957742,49
3.610137,208,6.7271,29.982089,49
3.627701,209,5.7821,29.942406,49
3.643956,210,5.3854,29.963726,49
3.660682,211,5.0559,29.950988,49
3.676934,212,6.8423,29.967862,49
3.69276,213,4.5552,29.98466,49
3.709952,214,6.9769,29.984354,49
3.727414,215,5.9334,29.978958,49
3.744283,216,7.1802,29.95042,49
3.760718,217,5.3528,29.959848,48
3.778229,218,6.0525,29.918633,48
3.794036,219,4.7008,29.955304,48
3.810826,220,4.4611,29.967171,48
3.827462,221,5.5761,29.952468,48
3.844084,222,8.1878,29.958893,48
3.861492,223,5.5245,29.9424,48
3.877888,224,4.7953,29.941961,48
3.894312,225,4.6454,29.953671,48
3.910604,226,6.2388,29.971826,48
3.927501,227,5.9119,29.971228,48
3.943668,228,5.4647,29.989336,48
3.960218,229,5.8545,29.963675,49
3.977346,230,5.5246,29.955555,49
3.994417,231,5.0466,29.949933,49
4.009897,232,6.5433,29.978892,49
4.027323,233,5.7656,29.966626,49
4.044276,234,5.6917,29.948133,49
4.060869,235,5.7413,29.966875,49
4.078388,236,5.1993,29.925193,49
4.095322,237,5.402,29.927059,49
4.110336,238,6.4075,29.960386,49
4.126976,239,5.5815,29.960976,49
4.143904,240,5.277,29.957637,49
4.160305,241,7.1518,29.964085,48
4.178098,242,5.9218,30.02648,48
4.193513,243,7.1226,30.013854,48
4.211906,244,5.7344,29.977819,48
4.227828,245,6.6059,29.939474,48
4.244039,246,6.8537,29.987699,48
4.260683,247,5.3489,29.97077,48
4.278042,248,6.1289,29.950151,48
4.293953,249,6.9668,29.956611,48
4.31139,250,5.404,29.956228,48
4.328051,251,7.0241,29.935534,48
4.344165,252,6.9449,29.956291,48
4.361876,253,5.6103,29.940487,48
4.378154,254,4.8402,29.959357,48
4.394752,255,4.8176,29.956557,48
4.41123,256,6.7228,29.964983,48
4.428578,257,5.6108,29.936633,48
4.444728,258,4.7223,29.967973,48
4.461997,259,5.958,29.970856,48
4.478219,260,7.1316,30.001896,48
4.494191,261,6.9968,29.979135,48
4.510612,262,7.1736,29.982376,48
4.527154,263,4.9955,29.997258,48
4.545117,264,5.8778,29.961401,48
4.561568,265,7.3411,29.972961,48
4.578797,266,5.4691,29.919782,48
4.595597,267,5.2334,29.947918,48
4.613792,268,7.8092,29.931128,48
4.628902,269,8.4829,30.017894,48
4.645608,270,5.4983,29.97271,48
4.662658,271,8.5632,29.991731,48
4.677587,272,5.9844,29.999145,48
4.69503,273,5.8625,29.970566,48
4.711453,274,7.0147,29.974408,48
4.729378,275,6.3853,29.991096,48
4.744394,276,5.411,30.009057,48
4.762278,277,6.2245,29.994916,54
4.778111,278,7.0267,30.025182,54
4.795326,279,9.1196,30.01314,54
4.811274,280,7.3955,29.999598,54
4.827991,281,7.5905,30.015638,54
4.844931,282,4.8629,29.983383,54
4.86241,283,8.2894,30.018035,54
4.877547,284,5.9974,30.018302,54
4.894016,285,7.9351,30.031858,54
4.911302,286,5.9232,29.986368,54
4.928987,287,8.3671,30.003937,54
4.944266,288,6.6629,29.990262,54
4.961799,289,6.473,29.983566,51
4.97743,290,6.8951,30.004891,51
4.995874,291,6.722,29.994565,51
5.010498,292,6.14,29.989785,51
5.027692,293,7.1003,30.006499,51
5.044389,294,6.0213,30.008943,51
5.06148,295,8.2676,30.00873,51
5.078073,296,7.4236,30.017771,51
5.095095,297,5.8815,30.028888,51
5.111209,298,6.4855,29.980003,51
5.129773,299,6.4826,29.950456,51
5.144786,300,5.5279,29.979839,51
5.161579,301,8.3111,29.995261,51
5.178158,302,4.6996,30.003144,51
5.195199,303,8.3014,29.991099,51
5.212153,304,5.2289,30.005932,51
5.228936,305,7.5038,30.005158,51
5.244744,306,10.488,29.987022,51
5.261909,307,8.6339,30.01005,51
5.278449,308,5.1965,29.990538,51
5.295039,309,7.7464,30.001281,51
5.31097,310,6.6563,30.018239,51
5.328837,311,5.4309,30.021351,51
5.344392,312,7.0119,30.000141,51
5.362459,313,6.0332,30.018215,51
5.378255,314,6.7991,30.003,51
5.395179,315,8.5577,30.023815,51
5.41092,316,7.2693,30.01708,51
5.429137,317,5.9845,30.014899,51
5.444586,318,6.6697,30.012467,51
5.461869,319,7.7221,30.043106,51
5.478626,320,5.4191,30.002661,51
5.495941,321,5.7291,29.979898,51
5.511399,322,5.1448,29.983905,51
5.529732,323,6.4229,29.957236,51
5.54488,324,7.4503,30.013824,51
5.561972,325,8.031,30.006004,51
5.577248,326,6.1973,30.051972,51
5.595817,327,6.7066,30.043632,51
5.612195,328,4.8677,30.020982,51
5.629446,329,7.6032,29.966875,51
5.644677,330,9.8557,30.014965,51
5.662753,331,7.3363,29.984309,51
5.678543,332,6.9057,29.968386,51
5.695495,333,5.7033,29.981552,51
5.71102,334,6.7009,29.997726,51
5.728487,335,5.0411,30.012071,51
5.745309,336,5.4424,29.973372,51
5.762174,337,8.2877,29.998692,51
5.779604,338,5.6706,29.943009,51
5.795906,339,6.9484,29.973096,51
5.812015,340,7.7622,29.984075,51
5.82937,341,6.0888,29.96003,51
5.844958,342,7.4922,29.990229,51
5.862299,343,6.1825,29.995246,51
5.878632,344,7.0297,29.970542,51
5.895406,345,8.2793,29.96859,51
5.911003,346,4.948,30.008036,51
5.929052,347,5.9368,29.981214,51
5.94528,348,5.038,29.974929,51
5.962093,349,7.9023,29.998977,51
5.978593,350,5.3219,29.969979,51
5.996061,351,5.8195,29.995339,51
6.012579,352,8.09,29.958343,51
6.028798,353,6.8411,29.98282,51
6.044934,354,5.0535,29.9907,51
6.063476,355,6.0661,29.947965,51
6.078617,356,5.1786,29.996122,51
6.096763,357,6.3142,29.972779,51
6.11206,358,6.5573,29.988146,51
6.128879,359,7.8867,30.029555,51
6.145305,360,5.2822,29.989794,51
6.162736,361,6.6577,29.966477,52
6.178447,362,6.8833,29.994058,52
6.196669,363,6.5223,29.944659,52
6.212256,364,7.4705,29.995603,52
6.230032,365,8.6947,29.972488,52
6.245432,366,6.1978,29.984885,52
6.263002,367,5.7423,29.953102,52
6.277645,368,5.8659,30.020892,52
6.295706,369,6.4129,29.981822,52
6.311108,370,6.8131,29.995558,52
6.330052,371,6.7418,29.955223,52
6.345198,372,6.7849,29.984561,52
6.362783,373,5.6959,29.988985,50
6.378897,374,5.1189,29.978859,50
6.396431,375,5.5694,29.953904,50
6.412228,376,7.412,29.965189,50
6.428709,377,7.3759,30.01265,50
6.445226,378,4.9008,29.980039,50
6.462366,379,6.0528,29.987414,50
6.477635,380,5.8051,30.019176,50
6.495724,381,6.5821,30.000504,50
6.51221,382,7.4074,29.975935,50
6.528839,383,7.533,30.026204,50
6.544752,384,4.8284,29.999286,50
6.562375,385,6.3477,29.989444,50
6.578142,386,7.0358,29.978508,50
6.595732,387,6.4755,29.986896,50
6.612353,388,4.9265,29.99324,50
6.629186,389,7.213,30.008763,50
6.645382,390,6.3894,29.974917,50
6.662744,391,8.3435,29.995615,50
6.678936,392,7.0872,29.988383,50
6.695844,393,5.4451,29.989696,50
6.712497,394,5.0757,29.9533,50
6.731547,395,7.345,29.908632,50
6.745421,396,5.0344,29.995936,50
6.762657,397,8.275,29.985619,50
6.778386,398,6.7589,30.033496,50
6.796519,399,6.3432,29.973081,50
6.812685,400,6.4631,29.972997,50
6.830524,401,6.2999,29.973872,50
6.845222,402,6.5764,29.997372,50
6.863039,403,5.7153,29.969566,50
6.879335,404,6.361,29.978712,50
6.896158,405,8.5661,29.984165,50
6.912807,406,5.5916,29.94601,50
6.930158,407,6.5558,29.968752,50
6.945868,408,6.7645,29.983021,50
6.962562,409,6.3937,29.978868,51
6.978869,410,5.1048,29.981915,51
6.996303,411,5.6926,29.985259,51
7.012405,412,5.171,29.997201,51
7.029014,413,7.3068,29.98918,51
7.045599,414,4.8071,29.967674,51
7.063138,415,6.4113,29.996817,51
7.07957,416,7.3228,29.965459,51
7.097149,417,6.7463,29.982029,51
7.112094,418,5.9525,29.991087,51
7.129582,419,8.3876,29.977472,51
7.145834,420,6.8574,29.981567,51
7.163844,421,7.8599,29.979857,51
7.179334,422,6.3078,29.974561,51
7.196537,423,7.4558,30.004759,51
7.213331,424,5.6094,29.962245,51
7.230068,425,6.8064,29.996107,51
7.245997,426,6.7246,29.974375,51
7.262538,427,8.2491,30.014518,51
7.27874,428,6.9731,29.974432,51
7.297129,429,6.7905,29.963822,51
7.31222,430,5.8836,29.965812,51
7.329327,431,7.4653,30.027487,51
7.346809,432,5.9715,29.954765,51
7.36295,433,8.3588,29.994076,51
7.379016,434,6.919,29.997345,51
7.396478,435,6.2959,29.997042,51
7.412531,436,5.0325,29.990682,51
7.429719,437,7.7055,29.973123,51
7.446206,438,7.1608,29.972114,51
7.462867,439,5.6929,29.984019,51
7.479729,440,5.1462,29.945732,51
7.496053,441,6.8021,29.988209,51
7.513022,442,5.7389,29.973659,51
7.530487,443,7.1855,29.953228,51
7.545822,444,7.0496,29.977855,51
7.563606,445,5.8073,29.971096,50
7.579228,446,6.8925,29.962421,50
7.596749,447,5.8639,29.969353,50
7.612534,448,7.0853,29.997081,50
7.630404,449,8.4182,29.971192,50
7.645958,450,6.9383,29.982835,50
7.663453,451,8.3331,29.97906,50
7.679335,452,6.3534,29.993938,50
7.697468,453,6.8625,29.959031,50
7.712378,454,7.1369,30.004369,50
7.729163,455,7.3963,30.064693,50
7.745749,456,5.3419,29.989782,50
7.7642,457,8.2336,29.95609,50
7.779237,458,5.7783,29.981265,50
7.796639,459,6.3278,29.995459,50
7.813277,460,5.7074,29.974516,50
7.830401,461,7.2768,30.005866,50
7.845939,462,6.8592,29.971575,50
7.863218,463,6.0925,29.995345,50
7.877795,464,4.6471,30.012797,50
7.896278,465,7.1094,29.989405,50
7.912064,466,6.1167,30.025759,50
7.930459,467,6.4978,29.997228,50
7.945664,468,5.6492,30.008654,50
7.963574,469,6.5068,29.981385,51
7.979115,470,6.72,29.994808,51
7.996167,471,5.7896,30.005446,51
8.013506,472,7.358,29.952947,51
8.030302,473,7.045,29.967075,51
8.046296,474,4.9712,29.976633,51
8.063287,475,6.9489,29.993749,51
8.080268,476,5.3921,29.973563,51
8.096948,477,5.8,30.001791,51
8.112642,478,6.5205,29.98101,51
8.130011,479,8.33,29.981882,51
8.146539,480,5.7975,29.97613,51
8.163881,481,6.1837,29.997132,50
8.179453,482,6.1803,29.995957,50
8.196809,483,5.4864,29.989465,50
8.212631,484,6.5995,30.028894,50
8.230787,485,6.7421,29.98808,50
8.246571,486,6.085,29.983698,50
8.263204,487,7.9801,29.985109,50
8.279374,488,6.1379,29.982346,50
8.297099,489,7.8435,29.994952,50
8.312957,490,6.6632,29.979803,50
8.330559,491,7.2039,29.956509,50
8.346639,492,4.766,30.000012,50
8.364067,493,6.2016,29.977966,51
8.379476,494,6.0389,29.988293,51
8.396985,495,6.4329,29.98614,51
8.412871,496,7.4172,29.994148,51
8.430178,497,8.222,29.998158,51
8.445962,498,4.7822,30.007916,51
8.464461,499,6.7136,29.950949,51
8.479992,500,6.7769,29.983039,51
8.497112,501,7.8038,29.977538,51
8.513657,502,7.3382,29.982547,51
8.530522,503,7.2826,30.000315,51
8.547442,504,6.1137,29.950031,51
8.56475,505,8.4444,29.965049,51
8.57959,506,6.1841,29.991045,51
8.596785,507,7.3863,29.999538,51
8.613178,508,6.7508,29.980998,51
8.631009,509,8.0661,29.981055,51
8.646864,510,6.9005,29.971497,51
8.663648,511,7.6558,29.996688,51
8.679495,512,6.4799,29.990436,51
8.697989,513,5.939,29.987327,51
8.713025,514,5.8793,29.980108,51
8.730931,515,7.7984,29.948811,51
8.746582,516,6.414,29.977535,51
8.764021,517,7.8317,30.007346,51
8.780144,518,7.0145,29.974294,51
8.797175,519,8.0237,29.98611,51
8.813174,520,4.8716,30.013092,51
8.831395,521,8.0694,29.965459,51
8.846111,522,5.7088,29.996331,51
8.863715,523,7.8079,29.98805,51
8.8807,524,7.5507,29.946267,51
8.898269,525,8.1176,29.947024,51
8.91255,526,5.3235,29.981019,51
8.930774,527,6.5309,29.990001,51
8.946513,528,6.2277,29.964178,51
8.964133,529,7.8249,29.983983,51
8.979387,530,6.4492,29.993575,51
8.997682,531,6.7746,29.956321,51
25.160175,1491,15.3056,26.802231,54
25.176769,1492,4.846,26.807931,54
25.193695,1493,7.7421,26.806044,54
25.21054,1494,4.9884,26.797436,54
25.226644,1495,3.5165,26.835232,54
25.243694,1496,7.9793,26.803673,54
25.260201,1497,6.9679,26.809012,54
25.277515,1498,3.4839,26.792396,54
25.29408,1499,5.6307,26.792259,54
25.310921,1500,7.9267,26.816273,54
25.327632,1501,3.6023,26.786738,54
25.34396,1502,6.7968,26.79632,54
25.36111,1503,7.9121,26.786269,40
25.377242,1504,3.8981,26.798365,40
25.393543,1505,4.2112,26.806688,40
25.410927,1506,7.9268,26.788041,40
25.427092,1507,4.054,26.799277,40
25.443677,1508,4.9503,26.804152,40
25.460079,1509,4.7243,26.806252,40
25.477465,1510,3.4704,26.79169,40
25.493956,1511,2.8407,26.793659,40
25.51138,1512,3.1124,26.777447,40
25.527473,1513,9.9225,26.834764,40
25.545439,1514,3.9171,26.765924,40
25.561177,1515,4.0835,26.785791,40
25.577568,1516,4.3774,26.818828,40
25.593217,1517,7.5902,26.815932,40
25.611221,1518,17.4987,26.790953,40
25.629081,1519,5.6869,26.757652,40
25.643904,1520,3.1442,26.797824,40
25.66027,1521,4.83,26.809151,40
25.678047,1522,3.9683,26.791336,40
25.694489,1523,6.9557,26.811664,40
25.711057,1524,16.0554,26.792448,40
25.727762,1525,7.1841,26.793891,40
25.744522,1526,4.0832,26.807788,40
25.761516,1527,7.2216,26.789608,41
25.777419,1528,15.5013,26.797137,41
25.793774,1529,6.6377,26.805596,41
25.811073,1530,16.4031,26.793566,41
25.827889,1531,3.6548,26.805239,41
25.844686,1532,4.3078,26.786695,41
25.861062,1533,7.9591,26.793712,41
25.877423,1534,3.948,26.960861,41
25.894956,1535,2.863,26.905393,41
25.911646,1536,4.3113,27.254128,41
25.9285,1537,8.1078,28.015149,41
25.945491,1538,16.1878,28.724019,41
25.961834,1539,4.3744,29.544018,44
25.978119,1540,4.0596,30.043271,44
25.995577,1541,5.0848,29.975959,44
26.011994,1542,4.7705,29.950241,44
26.028185,1543,4.3991,29.960736,44
26.045229,1544,7.9186,29.96927,44
26.061061,1545,4.0765,30.004678,44
26.078425,1546,5.3001,29.972779,44
26.094366,1547,3.8317,30.018765,44
26.111446,1548,2.9992,29.974429,44
26.128195,1549,5.2345,29.966411,44
26.146314,1550,3.2849,29.934267,40
26.162007,1551,7.8007,29.944922,40
26.178367,1552,4.62,29.951168,40
26.195409,1553,5.1377,29.949131,40
26.21148,1554,4.6665,29.97206,40
